X	Y	C	Z	T	Intensity	BG	MX
857.000	491.000	1	1	1	109.655	104.001	162.842
857.000	492.000	1	1	1	104.666	104.001	162.842
856.553	492.894	1	1	1	106.443	104.001	162.842
856.106	493.789	1	1	1	107.427	104.001	162.842
856.000	494.783	1	1	1	105.163	104.001	162.842
856.000	495.783	1	1	1	111.747	104.001	162.842
855.642	496.717	1	1	1	106.741	104.001	162.842
855.194	497.611	1	1	1	105.496	104.001	162.842
855.000	498.592	1	1	1	105.473	104.001	162.842
854.723	499.553	1	1	1	107.566	104.001	162.842
854.276	500.448	1	1	1	108.841	104.001	162.842
854.000	501.409	1	1	1	106.305	104.001	162.842
854.000	502.409	1	1	1	107.890	104.001	162.842
853.194	503.000	1	1	1	106.366	104.001	162.842
853.000	503.981	1	1	1	110.484	104.001	162.842
853.000	504.981	1	1	1	114.235	104.001	162.842
853.000	505.981	1	1	1	111.078	104.001	162.842
853.000	506.981	1	1	1	110.021	104.001	162.842
853.000	507.981	1	1	1	103.457	104.001	162.842
853.000	508.981	1	1	1	107.269	104.001	162.842
853.000	509.981	1	1	1	106.676	104.001	162.842
853.000	510.981	1	1	1	109.632	104.001	162.842
853.000	511.981	1	1	1	110.658	104.001	162.842
853.000	512.981	1	1	1	108.680	104.001	162.842
853.000	513.981	1	1	1	112.317	104.001	162.842
853.000	514.981	1	1	1	109.672	104.001	162.842
853.000	515.981	1	1	1	111.666	104.001	162.842
853.000	516.981	1	1	1	109.002	104.001	162.842
853.000	517.981	1	1	1	109.658	104.001	162.842
853.000	518.981	1	1	1	108.008	104.001	162.842
853.000	519.981	1	1	1	109.073	104.001	162.842
853.000	520.981	1	1	1	113.390	104.001	162.842
853.440	521.879	1	1	1	113.958	104.001	162.842
853.887	522.774	1	1	1	111.776	104.001	162.842
854.000	523.767	1	1	1	114.966	104.001	162.842
854.000	524.767	1	1	1	111.074	104.001	162.842
854.000	525.767	1	1	1	107.329	104.001	162.842
854.000	526.767	1	1	1	112.254	104.001	162.842
854.000	527.767	1	1	1	116.091	104.001	162.842
854.352	528.703	1	1	1	107.198	104.001	162.842
854.799	529.598	1	1	1	114.583	104.001	162.842
855.000	530.577	1	1	1	110.316	104.001	162.842
855.000	531.577	1	1	1	108.431	104.001	162.842
855.464	532.464	1	1	1	106.508	104.001	162.842
856.000	533.307	1	1	1	110.485	104.001	162.842
856.270	534.270	1	1	1	114.699	104.001	162.842
856.977	534.977	1	1	1	112.362	104.001	162.842
857.000	535.977	1	1	1	107.407	104.001	162.842
857.000	536.977	1	1	1	111.656	104.001	162.842
857.000	537.977	1	1	1	110.315	104.001	162.842
857.000	538.977	1	1	1	108.692	104.001	162.842
857.000	539.977	1	1	1	108.688	104.001	162.842
857.696	540.696	1	1	1	109.386	104.001	162.842
858.000	541.648	1	1	1	109.713	104.001	162.842
858.000	542.648	1	1	1	111.787	104.001	162.842
858.000	543.648	1	1	1	110.623	104.001	162.842
858.000	544.648	1	1	1	111.641	104.001	162.842
858.301	545.602	1	1	1	109.041	104.001	162.842
858.748	546.496	1	1	1	106.899	104.001	162.842
859.195	547.391	1	1	1	107.806	104.001	162.842
859.643	548.285	1	1	1	106.692	104.001	162.842
860.000	549.219	1	1	1	106.447	104.001	162.842
860.000	550.219	1	1	1	109.080	104.001	162.842
860.107	551.213	1	1	1	109.782	104.001	162.842
860.554	552.108	1	1	1	111.754	104.001	162.842
861.000	553.003	1	1	1	109.677	104.001	162.842
861.000	554.003	1	1	1	109.574	104.001	162.842
861.000	555.003	1	1	1	107.403	104.001	162.842
861.000	556.003	1	1	1	109.281	104.001	162.842
861.000	557.003	1	1	1	108.335	104.001	162.842
861.001	558.003	1	1	1	108.615	104.001	162.842
861.448	558.897	1	1	1	110.700	104.001	162.842
861.896	559.791	1	1	1	106.452	104.001	162.842
862.000	560.786	1	1	1	111.023	104.001	162.842
862.592	561.592	1	1	1	112.591	104.001	162.842
863.000	562.505	1	1	1	107.068	104.001	162.842
863.415	563.415	1	1	1	108.695	104.001	162.842
864.000	564.226	1	1	1	106.713	104.001	162.842
864.110	565.220	1	1	1	107.736	104.001	162.842
864.557	566.114	1	1	1	106.756	104.001	162.842
865.004	567.009	1	1	1	108.935	104.001	162.842
865.451	567.903	1	1	1	107.711	104.001	162.842
865.899	568.797	1	1	1	108.360	104.001	162.842
866.000	569.792	1	1	1	107.707	104.001	162.842
866.596	570.596	1	1	1	114.147	104.001	162.842
867.000	571.510	1	1	1	111.395	104.001	162.842
867.000	572.510	1	1	1	117.855	104.001	162.842
867.000	573.510	1	1	1	115.809	104.001	162.842
867.418	574.418	1	1	1	112.676	104.001	162.842
868.000	575.232	1	1	1	114.114	104.001	162.842
868.000	576.232	1	1	1	112.712	104.001	162.842
868.113	577.225	1	1	1	113.035	104.001	162.842
868.560	578.120	1	1	1	112.955	104.001	162.842
869.000	579.018	1	1	1	109.531	104.001	162.842
869.009	580.018	1	1	1	104.360	104.001	162.842
869.456	580.912	1	1	1	106.190	104.001	162.842
869.903	581.807	1	1	1	107.617	104.001	162.842
870.000	582.802	1	1	1	109.396	104.001	162.842
870.000	583.802	1	1	1	107.259	104.001	162.842
870.000	584.802	1	1	1	110.606	104.001	162.842
870.000	585.802	1	1	1	106.870	104.001	162.842
870.000	586.802	1	1	1	109.298	104.001	162.842
870.601	587.601	1	1	1	109.002	104.001	162.842
871.000	588.518	1	1	1	106.639	104.001	162.842
871.000	589.518	1	1	1	107.911	104.001	162.842
871.000	590.518	1	1	1	107.406	104.001	162.842
871.000	591.518	1	1	1	107.597	104.001	162.842
871.000	592.518	1	1	1	107.400	104.001	162.842
871.000	593.518	1	1	1	108.735	104.001	162.842
871.000	594.518	1	1	1	109.588	104.001	162.842
871.244	595.488	1	1	1	111.024	104.001	162.842
871.691	596.382	1	1	1	113.711	104.001	162.842
872.000	597.333	1	1	1	114.489	104.001	162.842
872.000	598.333	1	1	1	110.409	104.001	162.842
872.000	599.333	1	1	1	109.297	104.001	162.842
872.000	600.333	1	1	1	110.387	104.001	162.842
872.745	601.000	1	1	1	109.084	104.001	162.842
873.568	600.432	1	1	1	106.521	104.001	162.842
874.470	600.000	1	1	1	108.626	104.001	162.842
875.470	600.000	1	1	1	110.558	104.001	162.842
