X	Y	C	Z	T	Intensity	BG	MX
636.000	745.000	3	1	1	596.138	106.072	117.125
636.000	746.000	3	1	1	641.029	106.072	117.125
637.000	746.000	3	1	1	650.963	106.072	117.125
637.707	746.707	3	1	1	684.724	106.072	117.125
638.663	747.000	3	1	1	679.677	106.072	117.125
639.663	747.000	3	1	1	688.125	106.072	117.125
640.518	747.518	3	1	1	704.103	106.072	117.125
641.395	748.000	3	1	1	745.200	106.072	117.125
642.395	748.000	3	1	1	777.421	106.072	117.125
643.395	748.000	3	1	1	803.043	106.072	117.125
644.336	748.336	3	1	1	811.722	106.072	117.125
645.085	749.000	3	1	1	809.507	106.072	117.125
646.085	749.000	3	1	1	756.526	106.072	117.125
647.085	749.000	3	1	1	785.053	106.072	117.125
648.085	749.000	3	1	1	779.610	106.072	117.125
649.085	749.000	3	1	1	807.777	106.072	117.125
650.081	749.081	3	1	1	865.279	106.072	117.125
650.788	749.788	3	1	1	883.529	106.072	117.125
651.766	750.000	3	1	1	868.043	106.072	117.125
652.766	750.000	3	1	1	865.841	106.072	117.125
653.000	749.028	3	1	1	863.077	106.072	117.125
653.000	748.028	3	1	1	880.797	106.072	117.125
652.000	748.000	3	1	1	880.887	106.072	117.125
652.000	747.000	3	1	1	801.166	106.072	117.125
651.000	747.000	3	1	1	805.917	106.072	117.125
651.000	746.000	3	1	1	753.994	106.072	117.125
650.293	745.293	3	1	1	757.531	106.072	117.125
650.000	744.337	3	1	1	732.432	106.072	117.125
649.482	743.482	3	1	1	746.965	106.072	117.125
649.000	742.605	3	1	1	726.297	106.072	117.125
649.000	741.605	3	1	1	747.155	106.072	117.125
648.204	741.000	3	1	1	779.888	106.072	117.125
648.000	740.021	3	1	1	793.386	106.072	117.125
648.000	739.021	3	1	1	791.580	106.072	117.125
648.697	738.303	3	1	1	801.436	106.072	117.125
649.649	738.000	3	1	1	835.695	106.072	117.125
650.649	738.000	3	1	1	834.084	106.072	117.125
651.649	738.000	3	1	1	853.032	106.072	117.125
652.649	738.000	3	1	1	861.785	106.072	117.125
653.000	738.937	3	1	1	848.362	106.072	117.125
653.998	739.000	3	1	1	836.989	106.072	117.125
654.998	739.000	3	1	1	863.139	106.072	117.125
655.998	739.000	3	1	1	831.327	106.072	117.125
656.000	738.000	3	1	1	883.053	106.072	117.125
656.000	737.000	3	1	1	872.527	106.072	117.125
655.000	737.000	3	1	1	869.310	106.072	117.125
655.000	736.000	3	1	1	885.291	106.072	117.125
655.000	735.000	3	1	1	818.492	106.072	117.125
654.293	734.293	3	1	1	806.180	106.072	117.125
654.000	733.337	3	1	1	768.039	106.072	117.125
654.000	732.337	3	1	1	723.223	106.072	117.125
654.000	731.337	3	1	1	714.096	106.072	117.125
654.000	730.337	3	1	1	729.954	106.072	117.125
654.942	730.000	3	1	1	769.865	106.072	117.125
655.942	730.000	3	1	1	816.473	106.072	117.125
656.942	730.000	3	1	1	867.218	106.072	117.125
657.942	730.000	3	1	1	882.097	106.072	117.125
658.942	730.000	3	1	1	818.399	106.072	117.125
659.942	730.000	3	1	1	850.266	106.072	117.125
660.942	730.000	3	1	1	811.204	106.072	117.125
661.677	730.677	3	1	1	846.610	106.072	117.125
662.624	731.000	3	1	1	889.421	106.072	117.125
663.000	731.927	3	1	1	863.029	106.072	117.125
663.997	732.000	3	1	1	781.869	106.072	117.125
664.706	732.706	3	1	1	719.477	106.072	117.125
665.413	733.413	3	1	1	655.146	106.072	117.125
666.222	734.000	3	1	1	578.822	106.072	117.125
667.000	734.629	3	1	1	546.316	106.072	117.125
667.929	735.000	3	1	1	568.112	106.072	117.125
668.670	735.670	3	1	1	594.625	106.072	117.125
669.615	736.000	3	1	1	589.606	106.072	117.125
670.488	736.488	3	1	1	609.145	106.072	117.125
671.346	737.000	3	1	1	682.699	106.072	117.125
672.346	737.000	3	1	1	721.833	106.072	117.125
673.300	737.300	3	1	1	710.911	106.072	117.125
674.015	738.000	3	1	1	657.314	106.072	117.125
675.015	738.000	3	1	1	662.002	106.072	117.125
676.015	738.000	3	1	1	677.830	106.072	117.125
677.015	738.015	3	1	1	678.419	106.072	117.125
677.722	738.722	3	1	1	574.053	106.072	117.125
678.682	739.000	3	1	1	599.235	106.072	117.125
679.682	739.000	3	1	1	638.915	106.072	117.125
680.682	739.000	3	1	1	656.269	106.072	117.125
681.682	739.000	3	1	1	709.218	106.072	117.125
682.682	739.000	3	1	1	793.834	106.072	117.125
683.682	739.000	3	1	1	846.905	106.072	117.125
684.682	739.000	3	1	1	862.416	106.072	117.125
685.530	739.530	3	1	1	869.538	106.072	117.125
686.413	740.000	3	1	1	843.900	106.072	117.125
687.000	740.809	3	1	1	792.707	106.072	117.125
686.395	741.605	3	1	1	826.809	106.072	117.125
686.000	742.524	3	1	1	797.326	106.072	117.125
685.120	743.000	3	1	1	790.170	106.072	117.125
685.000	743.993	3	1	1	747.134	106.072	117.125
684.000	744.000	3	1	1	761.370	106.072	117.125
684.000	745.000	3	1	1	723.391	106.072	117.125
683.293	745.707	3	1	1	669.093	106.072	117.125
683.000	746.663	3	1	1	675.733	106.072	117.125
683.000	747.663	3	1	1	659.710	106.072	117.125
683.000	748.663	3	1	1	696.297	106.072	117.125
683.000	749.663	3	1	1	736.646	106.072	117.125
683.000	750.663	3	1	1	730.739	106.072	117.125
683.000	751.663	3	1	1	688.215	106.072	117.125
683.942	752.000	3	1	1	697.684	106.072	117.125
684.000	752.998	3	1	1	622.235	106.072	117.125
684.000	753.998	3	1	1	572.278	106.072	117.125
684.706	754.706	3	1	1	546.104	106.072	117.125
685.000	755.662	3	1	1	518.858	106.072	117.125
685.000	756.662	3	1	1	474.640	106.072	117.125
685.941	757.000	3	1	1	471.010	106.072	117.125
686.000	757.998	3	1	1	435.915	106.072	117.125
686.000	758.998	3	1	1	518.612	106.072	117.125
686.706	759.706	3	1	1	562.745	106.072	117.125
687.000	760.662	3	1	1	592.620	106.072	117.125
687.000	761.662	3	1	1	603.116	106.072	117.125
687.000	762.662	3	1	1	574.198	106.072	117.125
687.000	763.662	3	1	1	529.682	106.072	117.125
687.518	764.518	3	1	1	474.262	106.072	117.125
688.000	765.394	3	1	1	444.230	106.072	117.125
688.000	766.394	3	1	1	414.658	106.072	117.125
688.000	767.394	3	1	1	370.028	106.072	117.125
688.336	768.336	3	1	1	324.118	106.072	117.125
689.000	769.083	3	1	1	311.541	106.072	117.125
689.000	770.083	3	1	1	325.806	106.072	117.125
689.000	771.083	3	1	1	337.913	106.072	117.125
689.000	772.083	3	1	1	373.590	106.072	117.125
689.080	773.080	3	1	1	414.863	106.072	117.125
689.787	773.787	3	1	1	439.119	106.072	117.125
690.000	774.764	3	1	1	438.830	106.072	117.125
690.000	775.764	3	1	1	437.364	106.072	117.125
690.972	776.000	3	1	1	407.948	106.072	117.125
691.972	776.000	3	1	1	401.394	106.072	117.125
692.972	776.000	3	1	1	394.175	106.072	117.125
693.972	776.000	3	1	1	357.448	106.072	117.125
694.972	776.000	3	1	1	337.153	106.072	117.125
695.972	776.000	3	1	1	333.143	106.072	117.125
696.972	776.000	3	1	1	350.495	106.072	117.125
697.693	776.693	3	1	1	420.498	106.072	117.125
698.645	777.000	3	1	1	482.491	106.072	117.125
699.645	777.000	3	1	1	536.587	106.072	117.125
700.645	777.000	3	1	1	548.568	106.072	117.125
701.507	776.493	3	1	1	532.488	106.072	117.125
702.376	776.000	3	1	1	561.944	106.072	117.125
703.376	776.000	3	1	1	572.553	106.072	117.125
704.000	775.218	3	1	1	576.347	106.072	117.125
704.976	775.000	3	1	1	627.427	106.072	117.125
705.976	775.000	3	1	1	668.684	106.072	117.125
706.695	774.305	3	1	1	717.427	106.072	117.125
707.647	774.000	3	1	1	720.930	106.072	117.125
708.508	773.492	3	1	1	732.482	106.072	117.125
709.379	773.000	3	1	1	680.820	106.072	117.125
710.325	772.675	3	1	1	616.560	106.072	117.125
711.000	771.937	3	1	1	518.321	106.072	117.125
711.349	771.000	3	1	1	444.817	106.072	117.125
712.000	770.241	3	1	1	401.327	106.072	117.125
712.576	769.424	3	1	1	400.038	106.072	117.125
713.370	768.815	3	1	1	425.764	106.072	117.125
714.264	768.368	3	1	1	411.324	106.072	117.125
715.000	767.691	3	1	1	393.404	106.072	117.125
715.000	766.691	3	1	1	370.142	106.072	117.125
715.271	765.729	3	1	1	378.647	106.072	117.125
715.979	765.021	3	1	1	352.535	106.072	117.125
716.978	765.000	3	1	1	348.511	106.072	117.125
717.000	764.000	3	1	1	379.055	106.072	117.125
717.707	763.293	3	1	1	400.679	106.072	117.125
718.000	762.337	3	1	1	413.433	106.072	117.125
718.518	761.482	3	1	1	447.409	106.072	117.125
719.000	760.605	3	1	1	457.521	106.072	117.125
719.796	760.000	3	1	1	444.736	106.072	117.125
720.000	759.021	3	1	1	495.203	106.072	117.125
720.000	758.021	3	1	1	554.654	106.072	117.125
720.697	757.303	3	1	1	554.345	106.072	117.125
721.000	756.351	3	1	1	532.647	106.072	117.125
721.937	756.000	3	1	1	534.773	106.072	117.125
722.000	755.002	3	1	1	552.406	106.072	117.125
722.706	754.294	3	1	1	531.875	106.072	117.125
723.662	754.000	3	1	1	518.266	106.072	117.125
724.518	753.482	3	1	1	530.727	106.072	117.125
725.225	752.775	3	1	1	556.809	106.072	117.125
725.932	752.068	3	1	1	545.253	106.072	117.125
726.639	751.361	3	1	1	566.249	106.072	117.125
727.000	750.429	3	1	1	620.495	106.072	117.125
727.460	749.540	3	1	1	657.387	106.072	117.125
728.301	749.000	3	1	1	679.063	106.072	117.125
729.265	748.735	3	1	1	663.075	106.072	117.125
729.972	748.028	3	1	1	663.948	106.072	117.125
730.679	747.321	3	1	1	619.443	106.072	117.125
731.627	747.000	3	1	1	609.765	106.072	117.125
732.495	746.505	3	1	1	589.396	106.072	117.125
733.202	745.798	3	1	1	555.122	106.072	117.125
733.909	745.091	3	1	1	527.526	106.072	117.125
734.905	745.000	3	1	1	502.874	106.072	117.125
735.000	744.004	3	1	1	501.305	106.072	117.125
736.000	744.000	3	1	1	481.128	106.072	117.125
736.000	743.000	3	1	1	478.364	106.072	117.125
736.707	742.293	3	1	1	515.236	106.072	117.125
737.663	742.000	3	1	1	514.495	106.072	117.125
738.518	741.482	3	1	1	509.501	106.072	117.125
739.000	740.605	3	1	1	513.670	106.072	117.125
739.796	740.000	3	1	1	538.534	106.072	117.125
740.000	739.021	3	1	1	549.664	106.072	117.125
741.000	739.000	3	1	1	558.009	106.072	117.125
741.707	738.293	3	1	1	571.721	106.072	117.125
742.414	737.586	3	1	1	576.996	106.072	117.125
743.121	736.879	3	1	1	559.498	106.072	117.125
743.828	736.172	3	1	1	561.601	106.072	117.125
744.813	736.000	3	1	1	508.349	106.072	117.125
745.000	735.018	3	1	1	510.564	106.072	117.125
745.698	734.302	3	1	1	485.537	106.072	117.125
746.524	733.738	3	1	1	446.886	106.072	117.125
747.419	733.291	3	1	1	410.327	106.072	117.125
748.256	732.744	3	1	1	391.292	106.072	117.125
748.963	732.037	3	1	1	400.894	106.072	117.125
749.000	731.038	3	1	1	470.625	106.072	117.125
749.999	731.000	3	1	1	466.096	106.072	117.125
750.000	730.000	3	1	1	487.764	106.072	117.125
751.000	730.000	3	1	1	471.294	106.072	117.125
751.000	729.000	3	1	1	514.391	106.072	117.125
752.000	729.000	3	1	1	470.803	106.072	117.125
752.000	728.000	3	1	1	480.501	106.072	117.125
753.000	728.000	3	1	1	458.932	106.072	117.125
753.000	727.000	3	1	1	494.142	106.072	117.125
753.707	726.293	3	1	1	500.726	106.072	117.125
754.000	725.337	3	1	1	485.352	106.072	117.125
754.942	725.000	3	1	1	475.449	106.072	117.125
755.000	724.002	3	1	1	467.211	106.072	117.125
755.000	723.002	3	1	1	456.316	106.072	117.125
755.706	722.294	3	1	1	443.131	106.072	117.125
756.000	721.338	3	1	1	465.112	106.072	117.125
756.941	721.000	3	1	1	458.615	106.072	117.125
757.000	720.002	3	1	1	490.025	106.072	117.125
757.000	719.002	3	1	1	492.766	106.072	117.125
758.000	719.000	3	1	1	472.557	106.072	117.125
758.000	718.000	3	1	1	521.023	106.072	117.125
758.447	717.106	3	1	1	519.671	106.072	117.125
758.894	716.211	3	1	1	548.531	106.072	117.125
759.000	715.217	3	1	1	562.334	106.072	117.125
759.590	714.410	3	1	1	544.676	106.072	117.125
760.000	713.497	3	1	1	528.479	106.072	117.125
760.000	712.497	3	1	1	521.275	106.072	117.125
760.000	711.497	3	1	1	514.016	106.072	117.125
760.413	710.587	3	1	1	491.201	106.072	117.125
761.000	709.777	3	1	1	448.710	106.072	117.125
761.630	709.000	3	1	1	437.389	106.072	117.125
762.000	708.071	3	1	1	415.200	106.072	117.125
762.000	707.071	3	1	1	365.843	106.072	117.125
762.000	706.071	3	1	1	361.259	106.072	117.125
762.997	706.000	3	1	1	421.894	106.072	117.125
763.000	705.000	3	1	1	361.763	106.072	117.125
763.707	704.293	3	1	1	397.390	106.072	117.125
764.414	703.586	3	1	1	416.690	106.072	117.125
765.000	702.775	3	1	1	459.178	106.072	117.125
765.109	701.781	3	1	1	414.568	106.072	117.125
765.557	700.887	3	1	1	399.808	106.072	117.125
766.006	699.994	3	1	1	408.109	106.072	117.125
766.713	699.287	3	1	1	396.672	106.072	117.125
767.000	698.329	3	1	1	343.814	106.072	117.125
767.000	697.329	3	1	1	337.853	106.072	117.125
767.000	696.329	3	1	1	328.702	106.072	117.125
767.944	696.000	3	1	1	324.121	106.072	117.125
768.000	695.002	3	1	1	324.338	106.072	117.125
