X	Y	C	Z	T	Intensity	BG	MX
531.000	524.000	2	1	1	109.737	100.762	445.720
531.000	523.000	2	1	1	111.006	100.762	445.720
531.000	522.000	2	1	1	114.140	100.762	445.720
530.293	521.293	2	1	1	117.143	100.762	445.720
530.000	520.337	2	1	1	120.197	100.762	445.720
530.000	519.337	2	1	1	119.376	100.762	445.720
529.482	518.482	2	1	1	120.508	100.762	445.720
529.000	517.605	2	1	1	114.843	100.762	445.720
529.000	516.605	2	1	1	114.763	100.762	445.720
529.000	515.605	2	1	1	119.513	100.762	445.720
529.000	514.605	2	1	1	117.868	100.762	445.720
529.796	514.000	2	1	1	117.674	100.762	445.720
530.000	513.021	2	1	1	113.604	100.762	445.720
530.000	512.021	2	1	1	114.199	100.762	445.720
531.000	512.000	2	1	1	117.178	100.762	445.720
531.000	511.000	2	1	1	114.298	100.762	445.720
531.000	510.000	2	1	1	118.552	100.762	445.720
531.000	509.000	2	1	1	115.506	100.762	445.720
531.707	508.293	2	1	1	120.146	100.762	445.720
532.000	507.337	2	1	1	120.517	100.762	445.720
532.000	506.337	2	1	1	120.201	100.762	445.720
532.942	506.000	2	1	1	119.789	100.762	445.720
533.000	505.002	2	1	1	120.751	100.762	445.720
533.000	504.002	2	1	1	119.374	100.762	445.720
534.000	504.000	2	1	1	120.588	100.762	445.720
534.000	503.000	2	1	1	118.145	100.762	445.720
534.707	502.293	2	1	1	115.218	100.762	445.720
535.414	501.586	2	1	1	117.237	100.762	445.720
536.000	500.775	2	1	1	115.593	100.762	445.720
536.204	499.796	2	1	1	116.557	100.762	445.720
536.911	499.089	2	1	1	117.092	100.762	445.720
537.000	498.093	2	1	1	113.444	100.762	445.720
537.996	498.000	2	1	1	113.780	100.762	445.720
538.000	497.000	2	1	1	119.227	100.762	445.720
538.707	496.293	2	1	1	122.212	100.762	445.720
539.000	495.337	2	1	1	119.621	100.762	445.720
539.942	495.000	2	1	1	117.046	100.762	445.720
540.000	494.002	2	1	1	119.311	100.762	445.720
540.706	493.294	2	1	1	121.135	100.762	445.720
541.413	492.587	2	1	1	118.087	100.762	445.720
542.000	491.777	2	1	1	118.273	100.762	445.720
542.000	490.777	2	1	1	115.270	100.762	445.720
542.203	489.798	2	1	1	114.933	100.762	445.720
542.910	489.090	2	1	1	117.040	100.762	445.720
543.617	488.383	2	1	1	115.727	100.762	445.720
544.000	487.460	2	1	1	118.978	100.762	445.720
544.000	486.460	2	1	1	118.978	100.762	445.720
544.000	485.460	2	1	1	119.296	100.762	445.720
543.112	485.000	2	1	1	120.764	100.762	445.720
543.000	484.006	2	1	1	114.486	100.762	445.720
543.000	483.006	2	1	1	112.167	100.762	445.720
543.000	482.006	2	1	1	114.464	100.762	445.720
542.000	482.000	2	1	1	109.673	100.762	445.720
541.000	482.000	2	1	1	116.644	100.762	445.720
541.000	481.000	2	1	1	110.968	100.762	445.720
540.000	481.000	2	1	1	112.207	100.762	445.720
540.000	480.000	2	1	1	114.253	100.762	445.720
539.000	480.000	2	1	1	114.171	100.762	445.720
539.000	479.000	2	1	1	114.235	100.762	445.720
539.000	478.000	2	1	1	116.511	100.762	445.720
538.000	478.000	2	1	1	116.492	100.762	445.720
538.000	477.000	2	1	1	113.961	100.762	445.720
538.000	476.000	2	1	1	116.118	100.762	445.720
537.293	475.293	2	1	1	114.899	100.762	445.720
537.000	474.337	2	1	1	110.509	100.762	445.720
537.000	473.337	2	1	1	112.155	100.762	445.720
536.482	472.482	2	1	1	117.071	100.762	445.720
536.000	471.605	2	1	1	117.196	100.762	445.720
536.000	470.605	2	1	1	113.482	100.762	445.720
535.664	469.664	2	1	1	112.190	100.762	445.720
535.000	468.915	2	1	1	114.443	100.762	445.720
534.919	467.919	2	1	1	109.738	100.762	445.720
534.212	467.212	2	1	1	113.636	100.762	445.720
533.504	466.504	2	1	1	110.408	100.762	445.720
532.797	465.797	2	1	1	117.331	100.762	445.720
532.090	465.090	2	1	1	111.722	100.762	445.720
532.000	464.094	2	1	1	114.506	100.762	445.720
531.004	464.000	2	1	1	113.146	100.762	445.720
531.000	463.000	2	1	1	121.356	100.762	445.720
531.000	462.000	2	1	1	126.359	100.762	445.720
531.000	461.000	2	1	1	126.378	100.762	445.720
530.000	461.000	2	1	1	131.881	100.762	445.720
530.000	460.000	2	1	1	127.712	100.762	445.720
530.000	459.000	2	1	1	126.947	100.762	445.720
529.293	458.293	2	1	1	125.344	100.762	445.720
529.000	457.337	2	1	1	122.020	100.762	445.720
529.000	456.337	2	1	1	120.744	100.762	445.720
528.058	456.000	2	1	1	115.076	100.762	445.720
528.000	455.002	2	1	1	115.536	100.762	445.720
527.000	455.000	2	1	1	117.494	100.762	445.720
527.000	454.000	2	1	1	114.976	100.762	445.720
526.000	454.000	2	1	1	112.193	100.762	445.720
526.000	453.000	2	1	1	114.483	100.762	445.720
525.000	453.000	2	1	1	117.680	100.762	445.720
525.000	452.000	2	1	1	117.768	100.762	445.720
525.000	451.000	2	1	1	116.158	100.762	445.720
526.000	451.000	2	1	1	116.011	100.762	445.720
526.000	450.000	2	1	1	116.029	100.762	445.720
527.000	450.000	2	1	1	115.833	100.762	445.720
528.000	450.000	2	1	1	112.767	100.762	445.720
528.000	449.000	2	1	1	113.779	100.762	445.720
529.000	449.000	2	1	1	108.546	100.762	445.720
529.000	448.000	2	1	1	110.098	100.762	445.720
530.000	448.000	2	1	1	108.595	100.762	445.720
531.000	448.000	2	1	1	117.111	100.762	445.720
531.000	447.000	2	1	1	110.811	100.762	445.720
532.000	447.000	2	1	1	112.221	100.762	445.720
533.000	447.000	2	1	1	115.434	100.762	445.720
533.707	446.293	2	1	1	114.904	100.762	445.720
534.663	446.000	2	1	1	113.969	100.762	445.720
535.663	446.000	2	1	1	118.294	100.762	445.720
536.663	446.000	2	1	1	117.160	100.762	445.720
537.663	446.000	2	1	1	115.696	100.762	445.720
538.663	446.000	2	1	1	114.693	100.762	445.720
539.663	446.000	2	1	1	118.329	100.762	445.720
540.663	446.000	2	1	1	114.354	100.762	445.720
541.000	446.942	2	1	1	119.535	100.762	445.720
541.998	447.000	2	1	1	114.055	100.762	445.720
542.706	447.706	2	1	1	109.304	100.762	445.720
543.000	448.662	2	1	1	116.947	100.762	445.720
543.518	449.518	2	1	1	121.365	100.762	445.720
544.394	450.000	2	1	1	116.295	100.762	445.720
545.000	450.795	2	1	1	115.733	100.762	445.720
545.000	451.795	2	1	1	121.704	100.762	445.720
545.000	452.795	2	1	1	118.341	100.762	445.720
545.979	453.000	2	1	1	120.502	100.762	445.720
546.000	454.000	2	1	1	113.499	100.762	445.720
546.707	454.707	2	1	1	113.758	100.762	445.720
547.414	455.414	2	1	1	114.542	100.762	445.720
548.000	456.224	2	1	1	118.171	100.762	445.720
548.631	457.000	2	1	1	115.700	100.762	445.720
549.000	457.930	2	1	1	111.678	100.762	445.720
549.997	458.000	2	1	1	113.359	100.762	445.720
550.000	459.000	2	1	1	113.505	100.762	445.720
551.000	459.000	2	1	1	114.767	100.762	445.720
551.000	460.000	2	1	1	117.090	100.762	445.720
552.000	460.000	2	1	1	118.411	100.762	445.720
552.000	461.000	2	1	1	116.627	100.762	445.720
