X	Y	C	Z	T	Intensity	BG	MX
622.000	754.000	1	1	1	119.668	101.466	117.175
621.000	754.000	1	1	1	128.641	101.466	117.175
620.000	754.000	1	1	1	119.704	101.466	117.175
619.000	754.000	1	1	1	123.682	101.466	117.175
618.000	754.000	1	1	1	127.037	101.466	117.175
617.293	754.707	1	1	1	126.626	101.466	117.175
616.337	755.000	1	1	1	136.030	101.466	117.175
615.482	755.518	1	1	1	134.903	101.466	117.175
614.774	756.226	1	1	1	135.198	101.466	117.175
614.067	756.933	1	1	1	136.565	101.466	117.175
614.000	757.930	1	1	1	143.771	101.466	117.175
613.002	758.000	1	1	1	148.508	101.466	117.175
612.294	758.706	1	1	1	143.679	101.466	117.175
611.338	759.000	1	1	1	142.379	101.466	117.175
611.000	759.941	1	1	1	139.743	101.466	117.175
610.130	760.435	1	1	1	134.991	101.466	117.175
609.236	760.882	1	1	1	127.214	101.466	117.175
608.472	761.528	1	1	1	121.529	101.466	117.175
607.591	762.000	1	1	1	122.667	101.466	117.175
606.591	762.000	1	1	1	124.712	101.466	117.175
605.653	762.347	1	1	1	124.580	101.466	117.175
604.896	763.000	1	1	1	123.267	101.466	117.175
603.896	763.000	1	1	1	129.454	101.466	117.175
602.896	763.000	1	1	1	133.228	101.466	117.175
601.896	763.000	1	1	1	134.734	101.466	117.175
600.896	762.965	1	1	1	132.013	101.466	117.175
599.948	762.649	1	1	1	129.302	101.466	117.175
598.999	762.333	1	1	1	128.163	101.466	117.175
598.050	762.017	1	1	1	121.133	101.466	117.175
597.050	762.000	1	1	1	120.778	101.466	117.175
596.050	762.000	1	1	1	122.687	101.466	117.175
595.319	762.681	1	1	1	120.213	101.466	117.175
594.371	763.000	1	1	1	126.191	101.466	117.175
593.371	763.000	1	1	1	124.843	101.466	117.175
592.371	763.000	1	1	1	125.667	101.466	117.175
591.371	763.000	1	1	1	129.806	101.466	117.175
590.371	763.000	1	1	1	128.280	101.466	117.175
589.371	763.000	1	1	1	129.412	101.466	117.175
588.371	763.000	1	1	1	125.034	101.466	117.175
587.371	763.000	1	1	1	124.218	101.466	117.175
586.371	763.000	1	1	1	128.676	101.466	117.175
585.371	763.000	1	1	1	124.950	101.466	117.175
584.371	763.000	1	1	1	125.781	101.466	117.175
583.503	763.497	1	1	1	125.823	101.466	117.175
582.639	764.000	1	1	1	121.126	101.466	117.175
581.639	764.000	1	1	1	122.401	101.466	117.175
580.639	764.000	1	1	1	124.974	101.466	117.175
579.639	764.000	1	1	1	127.700	101.466	117.175
578.639	764.000	1	1	1	126.841	101.466	117.175
577.639	764.000	1	1	1	127.204	101.466	117.175
576.639	764.000	1	1	1	125.854	101.466	117.175
575.688	764.312	1	1	1	126.203	101.466	117.175
574.963	765.000	1	1	1	128.297	101.466	117.175
573.963	765.000	1	1	1	125.505	101.466	117.175
572.963	765.000	1	1	1	124.132	101.466	117.175
571.964	765.036	1	1	1	125.441	101.466	117.175
571.257	765.743	1	1	1	126.028	101.466	117.175
570.290	766.000	1	1	1	129.000	101.466	117.175
569.290	766.000	1	1	1	126.899	101.466	117.175
568.290	766.000	1	1	1	127.009	101.466	117.175
567.290	766.000	1	1	1	128.360	101.466	117.175
566.290	766.000	1	1	1	131.081	101.466	117.175
565.453	766.547	1	1	1	127.829	101.466	117.175
564.561	767.000	1	1	1	126.878	101.466	117.175
563.561	767.000	1	1	1	127.116	101.466	117.175
562.561	767.000	1	1	1	123.445	101.466	117.175
562.000	767.828	1	1	1	126.428	101.466	117.175
561.015	768.000	1	1	1	120.455	101.466	117.175
560.015	768.000	1	1	1	116.503	101.466	117.175
559.015	768.000	1	1	1	123.270	101.466	117.175
559.000	769.000	1	1	1	122.522	101.466	117.175
558.000	769.000	1	1	1	125.578	101.466	117.175
557.000	769.000	1	1	1	124.619	101.466	117.175
556.293	769.707	1	1	1	127.355	101.466	117.175
555.337	770.000	1	1	1	133.220	101.466	117.175
554.482	770.518	1	1	1	135.522	101.466	117.175
553.605	771.000	1	1	1	140.135	101.466	117.175
553.000	771.796	1	1	1	137.332	101.466	117.175
552.402	772.598	1	1	1	133.047	101.466	117.175
551.487	773.000	1	1	1	143.591	101.466	117.175
551.000	773.874	1	1	1	127.085	101.466	117.175
550.008	774.000	1	1	1	125.014	101.466	117.175
549.112	774.444	1	1	1	125.724	101.466	117.175
548.218	774.891	1	1	1	132.044	101.466	117.175
547.224	775.000	1	1	1	136.183	101.466	117.175
546.414	775.586	1	1	1	137.108	101.466	117.175
545.706	776.294	1	1	1	138.340	101.466	117.175
544.999	777.000	1	1	1	137.271	101.466	117.175
543.999	777.000	1	1	1	139.062	101.466	117.175
543.000	777.052	1	1	1	133.090	101.466	117.175
542.681	778.000	1	1	1	131.124	101.466	117.175
541.681	778.000	1	1	1	122.223	101.466	117.175
540.681	778.000	1	1	1	117.846	101.466	117.175
539.721	778.279	1	1	1	124.026	101.466	117.175
539.014	778.986	1	1	1	124.458	101.466	117.175
538.014	779.000	1	1	1	120.017	101.466	117.175
537.300	779.700	1	1	1	126.110	101.466	117.175
536.346	780.000	1	1	1	124.316	101.466	117.175
535.487	780.513	1	1	1	125.503	101.466	117.175
534.614	781.000	1	1	1	127.694	101.466	117.175
534.000	781.789	1	1	1	121.550	101.466	117.175
533.022	782.000	1	1	1	121.358	101.466	117.175
532.304	782.696	1	1	1	116.018	101.466	117.175
531.352	783.000	1	1	1	120.141	101.466	117.175
530.352	783.000	1	1	1	124.342	101.466	117.175
529.352	783.000	1	1	1	125.125	101.466	117.175
528.352	783.000	1	1	1	131.454	101.466	117.175
527.352	783.000	1	1	1	132.338	101.466	117.175
526.491	783.509	1	1	1	133.471	101.466	117.175
525.620	784.000	1	1	1	127.596	101.466	117.175
524.620	784.000	1	1	1	126.712	101.466	117.175
523.620	784.000	1	1	1	126.115	101.466	117.175
522.620	784.000	1	1	1	129.297	101.466	117.175
521.620	784.000	1	1	1	133.978	101.466	117.175
520.674	784.326	1	1	1	134.822	101.466	117.175
519.936	785.000	1	1	1	129.316	101.466	117.175
518.936	785.000	1	1	1	129.216	101.466	117.175
517.936	785.000	1	1	1	125.685	101.466	117.175
516.936	785.000	1	1	1	127.439	101.466	117.175
515.936	785.000	1	1	1	118.440	101.466	117.175
514.936	785.000	1	1	1	124.265	101.466	117.175
513.936	785.000	1	1	1	123.692	101.466	117.175
512.936	785.000	1	1	1	125.138	101.466	117.175
511.938	785.062	1	1	1	133.710	101.466	117.175
511.231	785.769	1	1	1	131.903	101.466	117.175
510.258	786.000	1	1	1	130.408	101.466	117.175
510.000	786.966	1	1	1	126.848	101.466	117.175
510.999	787.000	1	1	1	129.573	101.466	117.175
