X	Y	C	Z	T	Intensity	BG	MX
860.000	558.000	3	1	1	123.333	105.769	132.444
860.000	559.000	3	1	1	120.683	105.769	132.444
860.000	560.000	3	1	1	133.684	105.769	132.444
860.000	561.000	3	1	1	140.350	105.769	132.444
860.000	562.000	3	1	1	144.605	105.769	132.444
860.000	563.000	3	1	1	132.970	105.769	132.444
860.000	564.000	3	1	1	128.362	105.769	132.444
860.000	565.000	3	1	1	132.140	105.769	132.444
860.000	566.000	3	1	1	147.212	105.769	132.444
860.000	567.000	3	1	1	135.636	105.769	132.444
860.000	568.000	3	1	1	133.005	105.769	132.444
860.000	569.000	3	1	1	133.560	105.769	132.444
860.000	570.000	3	1	1	148.821	105.769	132.444
860.000	571.000	3	1	1	137.564	105.769	132.444
860.000	572.000	3	1	1	128.221	105.769	132.444
859.293	572.707	3	1	1	136.456	105.769	132.444
859.000	573.663	3	1	1	143.903	105.769	132.444
858.693	574.615	3	1	1	144.013	105.769	132.444
858.245	575.509	3	1	1	150.277	105.769	132.444
858.000	576.479	3	1	1	148.765	105.769	132.444
857.603	577.397	3	1	1	139.721	105.769	132.444
857.000	578.194	3	1	1	143.534	105.769	132.444
856.822	579.178	3	1	1	141.922	105.769	132.444
856.115	579.885	3	1	1	148.114	105.769	132.444
855.408	580.592	3	1	1	160.683	105.769	132.444
855.000	581.505	3	1	1	149.929	105.769	132.444
854.762	582.477	3	1	1	145.839	105.769	132.444
854.314	583.371	3	1	1	155.480	105.769	132.444
853.782	584.218	3	1	1	154.211	105.769	132.444
853.075	584.925	3	1	1	145.919	105.769	132.444
852.368	585.632	3	1	1	150.722	105.769	132.444
852.000	586.562	3	1	1	146.789	105.769	132.444
851.101	587.000	3	1	1	151.934	105.769	132.444
851.000	587.995	3	1	1	161.086	105.769	132.444
851.000	588.995	3	1	1	153.110	105.769	132.444
850.295	589.705	3	1	1	143.528	105.769	132.444
850.000	590.660	3	1	1	127.753	105.769	132.444
850.000	591.660	3	1	1	131.748	105.769	132.444
849.694	592.612	3	1	1	127.713	105.769	132.444
849.247	593.506	3	1	1	128.733	105.769	132.444
848.800	594.401	3	1	1	129.591	105.769	132.444
848.352	595.295	3	1	1	123.232	105.769	132.444
848.000	596.231	3	1	1	124.678	105.769	132.444
848.000	597.231	3	1	1	123.869	105.769	132.444
848.000	598.231	3	1	1	121.229	105.769	132.444
847.888	599.225	3	1	1	117.147	105.769	132.444
847.440	600.119	3	1	1	119.073	105.769	132.444
846.993	601.014	3	1	1	120.760	105.769	132.444
846.546	601.908	3	1	1	115.935	105.769	132.444
846.099	602.802	3	1	1	117.086	105.769	132.444
846.000	603.798	3	1	1	116.680	105.769	132.444
846.000	604.798	3	1	1	117.073	105.769	132.444
846.000	605.798	3	1	1	121.054	105.769	132.444
846.000	606.798	3	1	1	119.281	105.769	132.444
845.636	607.729	3	1	1	118.035	105.769	132.444
845.188	608.623	3	1	1	115.516	105.769	132.444
845.000	609.605	3	1	1	119.057	105.769	132.444
845.000	610.605	3	1	1	126.391	105.769	132.444
845.000	611.605	3	1	1	129.808	105.769	132.444
845.000	612.605	3	1	1	129.426	105.769	132.444
845.000	613.605	3	1	1	129.810	105.769	132.444
845.000	614.605	3	1	1	135.767	105.769	132.444
845.000	615.605	3	1	1	129.654	105.769	132.444
845.000	616.605	3	1	1	126.659	105.769	132.444
844.718	617.565	3	1	1	124.406	105.769	132.444
844.270	618.459	3	1	1	119.443	105.769	132.444
844.000	619.422	3	1	1	123.836	105.769	132.444
844.000	620.422	3	1	1	129.097	105.769	132.444
844.000	621.422	3	1	1	134.276	105.769	132.444
844.000	622.422	3	1	1	136.588	105.769	132.444
844.000	623.422	3	1	1	135.167	105.769	132.444
844.000	624.422	3	1	1	133.787	105.769	132.444
844.000	625.422	3	1	1	140.219	105.769	132.444
844.356	626.356	3	1	1	143.922	105.769	132.444
845.000	627.121	3	1	1	143.599	105.769	132.444
845.000	628.121	3	1	1	152.055	105.769	132.444
845.000	629.121	3	1	1	138.784	105.769	132.444
845.000	630.121	3	1	1	140.361	105.769	132.444
845.000	631.121	3	1	1	140.640	105.769	132.444
845.000	632.121	3	1	1	140.651	105.769	132.444
845.000	633.121	3	1	1	143.384	105.769	132.444
845.000	634.121	3	1	1	137.059	105.769	132.444
845.000	635.121	3	1	1	137.938	105.769	132.444
845.000	636.121	3	1	1	141.432	105.769	132.444
845.000	637.121	3	1	1	147.417	105.769	132.444
845.000	638.121	3	1	1	133.701	105.769	132.444
845.000	639.121	3	1	1	149.617	105.769	132.444
845.000	640.121	3	1	1	146.582	105.769	132.444
845.000	641.121	3	1	1	150.885	105.769	132.444
845.000	642.121	3	1	1	140.168	105.769	132.444
845.000	643.121	3	1	1	137.047	105.769	132.444
845.000	644.121	3	1	1	149.367	105.769	132.444
845.000	645.121	3	1	1	149.770	105.769	132.444
845.000	646.121	3	1	1	149.373	105.769	132.444
845.000	647.121	3	1	1	138.723	105.769	132.444
845.000	648.121	3	1	1	140.996	105.769	132.444
845.000	649.121	3	1	1	133.900	105.769	132.444
845.000	650.121	3	1	1	143.486	105.769	132.444
845.000	651.121	3	1	1	138.888	105.769	132.444
845.000	652.121	3	1	1	134.807	105.769	132.444
845.000	653.121	3	1	1	130.895	105.769	132.444
845.000	654.121	3	1	1	132.088	105.769	132.444
845.000	655.121	3	1	1	127.946	105.769	132.444
845.000	656.121	3	1	1	130.208	105.769	132.444
845.115	657.115	3	1	1	131.697	105.769	132.444
845.822	657.822	3	1	1	133.746	105.769	132.444
846.000	658.806	3	1	1	137.052	105.769	132.444
846.000	659.806	3	1	1	135.035	105.769	132.444
846.000	660.806	3	1	1	127.471	105.769	132.444
846.000	661.806	3	1	1	126.724	105.769	132.444
846.000	662.806	3	1	1	134.150	105.769	132.444
846.000	663.806	3	1	1	135.470	105.769	132.444
846.000	664.806	3	1	1	136.926	105.769	132.444
846.000	665.806	3	1	1	139.468	105.769	132.444
846.000	666.806	3	1	1	127.801	105.769	132.444
845.632	667.736	3	1	1	121.018	105.769	132.444
845.185	668.630	3	1	1	116.003	105.769	132.444
845.000	669.613	3	1	1	112.796	105.769	132.444
845.000	670.613	3	1	1	118.254	105.769	132.444
845.000	671.613	3	1	1	124.556	105.769	132.444
845.000	672.613	3	1	1	124.383	105.769	132.444
845.000	673.613	3	1	1	125.359	105.769	132.444
845.000	674.613	3	1	1	122.403	105.769	132.444
845.000	675.613	3	1	1	118.853	105.769	132.444
845.000	676.613	3	1	1	116.906	105.769	132.444
845.000	677.613	3	1	1	114.570	105.769	132.444
