X	Y	C	Z	T	Intensity	BG	MX
83.000	127.167	3	1	1	160.766	127.292	960.012
82.410	127.974	3	1	1	159.170	127.292	960.012
81.820	128.781	3	1	1	163.730	127.292	960.012
81.230	129.589	3	1	1	157.407	127.292	960.012
80.640	130.396	3	1	1	166.009	127.292	960.012
80.050	131.204	3	1	1	164.601	127.292	960.012
79.460	132.011	3	1	1	164.873	127.292	960.012
78.870	132.818	3	1	1	163.059	127.292	960.012
78.280	133.626	3	1	1	162.194	127.292	960.012
77.690	134.433	3	1	1	157.303	127.292	960.012
77.100	135.241	3	1	1	156.621	127.292	960.012
76.493	136.036	3	1	1	155.020	127.292	960.012
75.842	136.795	3	1	1	164.799	127.292	960.012
75.192	137.554	3	1	1	158.787	127.292	960.012
74.541	138.313	3	1	1	160.387	127.292	960.012
73.890	139.073	3	1	1	165.626	127.292	960.012
73.239	139.832	3	1	1	156.958	127.292	960.012
72.589	140.591	3	1	1	159.108	127.292	960.012
71.938	141.350	3	1	1	159.200	127.292	960.012
71.309	142.128	3	1	1	157.387	127.292	960.012
70.697	142.919	3	1	1	160.034	127.292	960.012
70.085	143.710	3	1	1	150.822	127.292	960.012
69.473	144.500	3	1	1	160.163	127.292	960.012
68.861	145.291	3	1	1	168.578	127.292	960.012
68.248	146.082	3	1	1	159.756	127.292	960.012
67.655	146.887	3	1	1	152.750	127.292	960.012
67.434	147.862	3	1	1	157.628	127.292	960.012
67.214	148.837	3	1	1	158.968	127.292	960.012
66.994	149.813	3	1	1	159.691	127.292	960.012
66.774	150.788	3	1	1	156.682	127.292	960.012
66.553	151.764	3	1	1	160.417	127.292	960.012
66.333	152.739	3	1	1	160.598	127.292	960.012
66.113	153.715	3	1	1	156.742	127.292	960.012
65.893	154.690	3	1	1	158.115	127.292	960.012
65.672	155.665	3	1	1	165.535	127.292	960.012
65.452	156.641	3	1	1	166.303	127.292	960.012
65.176	157.602	3	1	1	165.557	127.292	960.012
64.836	158.542	3	1	1	152.414	127.292	960.012
64.496	159.483	3	1	1	156.783	127.292	960.012
64.155	160.423	3	1	1	164.998	127.292	960.012
63.815	161.364	3	1	1	156.056	127.292	960.012
63.475	162.304	3	1	1	156.663	127.292	960.012
63.135	163.244	3	1	1	154.800	127.292	960.012
62.795	164.185	3	1	1	170.195	127.292	960.012
62.460	165.127	3	1	1	162.971	127.292	960.012
62.156	166.079	3	1	1	155.831	127.292	960.012
61.851	167.032	3	1	1	157.253	127.292	960.012
61.547	167.985	3	1	1	166.770	127.292	960.012
61.243	168.937	3	1	1	155.182	127.292	960.012
60.939	169.890	3	1	1	156.391	127.292	960.012
60.635	170.843	3	1	1	153.347	127.292	960.012
60.331	171.795	3	1	1	158.543	127.292	960.012
60.027	172.748	3	1	1	165.418	127.292	960.012
59.896	173.739	3	1	1	164.493	127.292	960.012
59.782	174.733	3	1	1	159.514	127.292	960.012
59.669	175.726	3	1	1	157.899	127.292	960.012
59.555	176.720	3	1	1	163.578	127.292	960.012
59.441	177.713	3	1	1	164.618	127.292	960.012
59.327	178.707	3	1	1	162.336	127.292	960.012
59.214	179.700	3	1	1	165.348	127.292	960.012
59.100	180.694	3	1	1	158.349	127.292	960.012
58.986	181.687	3	1	1	160.237	127.292	960.012
58.872	182.681	3	1	1	158.571	127.292	960.012
58.759	183.674	3	1	1	161.669	127.292	960.012
58.624	184.665	3	1	1	156.194	127.292	960.012
58.487	185.656	3	1	1	163.522	127.292	960.012
58.350	186.647	3	1	1	166.442	127.292	960.012
58.214	187.637	3	1	1	155.828	127.292	960.012
58.077	188.628	3	1	1	152.958	127.292	960.012
57.941	189.618	3	1	1	160.362	127.292	960.012
57.804	190.609	3	1	1	156.301	127.292	960.012
57.654	191.598	3	1	1	159.913	127.292	960.012
57.495	192.585	3	1	1	154.871	127.292	960.012
57.337	193.572	3	1	1	153.266	127.292	960.012
57.178	194.560	3	1	1	161.300	127.292	960.012
57.019	195.547	3	1	1	160.424	127.292	960.012
56.861	196.534	3	1	1	154.652	127.292	960.012
56.702	197.522	3	1	1	155.891	127.292	960.012
56.543	198.509	3	1	1	156.298	127.292	960.012
56.385	199.496	3	1	1	162.805	127.292	960.012
56.226	200.484	3	1	1	159.897	127.292	960.012
56.067	201.471	3	1	1	162.733	127.292	960.012
55.908	202.458	3	1	1	167.387	127.292	960.012
55.750	203.446	3	1	1	163.301	127.292	960.012
55.591	204.433	3	1	1	164.065	127.292	960.012
55.467	205.425	3	1	1	159.182	127.292	960.012
55.391	206.422	3	1	1	158.130	127.292	960.012
55.314	207.419	3	1	1	157.462	127.292	960.012
55.237	208.417	3	1	1	159.797	127.292	960.012
55.160	209.414	3	1	1	159.851	127.292	960.012
55.084	210.411	3	1	1	159.974	127.292	960.012
55.007	211.408	3	1	1	152.554	127.292	960.012
54.930	212.405	3	1	1	154.505	127.292	960.012
54.854	213.402	3	1	1	156.432	127.292	960.012
54.777	214.399	3	1	1	158.297	127.292	960.012
54.750	215.398	3	1	1	154.016	127.292	960.012
54.750	216.398	3	1	1	151.916	127.292	960.012
54.750	217.398	3	1	1	153.752	127.292	960.012
54.750	218.398	3	1	1	156.292	127.292	960.012
54.750	219.398	3	1	1	155.771	127.292	960.012
54.750	220.398	3	1	1	160.261	127.292	960.012
54.750	221.398	3	1	1	161.293	127.292	960.012
54.750	222.398	3	1	1	158.579	127.292	960.012
54.750	223.398	3	1	1	156.070	127.292	960.012
54.750	224.398	3	1	1	157.348	127.292	960.012
54.750	225.398	3	1	1	158.410	127.292	960.012
54.750	226.398	3	1	1	156.123	127.292	960.012
54.766	227.398	3	1	1	155.819	127.292	960.012
54.783	228.398	3	1	1	153.829	127.292	960.012
54.801	229.398	3	1	1	150.999	127.292	960.012
54.818	230.398	3	1	1	155.127	127.292	960.012
54.836	231.398	3	1	1	155.712	127.292	960.012
54.853	232.398	3	1	1	151.125	127.292	960.012
54.871	233.397	3	1	1	148.339	127.292	960.012
54.889	234.397	3	1	1	157.616	127.292	960.012
54.906	235.397	3	1	1	167.688	127.292	960.012
54.924	236.397	3	1	1	160.157	127.292	960.012
54.941	237.397	3	1	1	148.325	127.292	960.012
54.959	238.397	3	1	1	151.744	127.292	960.012
54.976	239.397	3	1	1	155.744	127.292	960.012
54.994	240.396	3	1	1	154.949	127.292	960.012
55.083	241.392	3	1	1	149.556	127.292	960.012
55.211	242.384	3	1	1	145.562	127.292	960.012
55.339	243.376	3	1	1	153.655	127.292	960.012
55.467	244.368	3	1	1	157.171	127.292	960.012
55.595	245.360	3	1	1	156.963	127.292	960.012
55.723	246.351	3	1	1	153.851	127.292	960.012
55.851	247.343	3	1	1	150.166	127.292	960.012
55.979	248.335	3	1	1	151.435	127.292	960.012
56.231	249.303	3	1	1	147.008	127.292	960.012
56.507	250.264	3	1	1	155.474	127.292	960.012
56.783	251.225	3	1	1	150.553	127.292	960.012
57.060	252.186	3	1	1	159.752	127.292	960.012
57.336	253.147	3	1	1	155.198	127.292	960.012
57.612	254.108	3	1	1	153.078	127.292	960.012
57.889	255.069	3	1	1	153.388	127.292	960.012
58.165	256.030	3	1	1	161.808	127.292	960.012
58.441	256.991	3	1	1	159.775	127.292	960.012
58.718	257.952	3	1	1	159.852	127.292	960.012
58.994	258.913	3	1	1	159.978	127.292	960.012
59.270	259.874	3	1	1	147.506	127.292	960.012
59.546	260.835	3	1	1	148.310	127.292	960.012
59.823	261.796	3	1	1	153.303	127.292	960.012
60.224	262.712	3	1	1	140.565	127.292	960.012
60.630	263.626	3	1	1	147.103	127.292	960.012
61.036	264.540	3	1	1	154.084	127.292	960.012
61.442	265.454	3	1	1	154.564	127.292	960.012
61.849	266.368	3	1	1	159.517	127.292	960.012
62.255	267.281	3	1	1	151.942	127.292	960.012
62.661	268.195	3	1	1	145.122	127.292	960.012
63.067	269.109	3	1	1	149.622	127.292	960.012
63.473	270.023	3	1	1	153.452	127.292	960.012
63.879	270.937	3	1	1	147.816	127.292	960.012
64.285	271.851	3	1	1	150.786	127.292	960.012
64.692	272.764	3	1	1	145.774	127.292	960.012
65.098	273.678	3	1	1	153.695	127.292	960.012
65.504	274.592	3	1	1	143.306	127.292	960.012
65.910	275.506	3	1	1	141.802	127.292	960.012
66.316	276.420	3	1	1	154.692	127.292	960.012
66.877	277.248	3	1	1	153.107	127.292	960.012
67.549	277.988	3	1	1	147.283	127.292	960.012
68.222	278.728	3	1	1	147.090	127.292	960.012
68.895	279.467	3	1	1	139.901	127.292	960.012
69.567	280.207	3	1	1	144.383	127.292	960.012
70.240	280.947	3	1	1	147.863	127.292	960.012
70.913	281.687	3	1	1	154.058	127.292	960.012
71.585	282.427	3	1	1	155.904	127.292	960.012
72.258	283.167	3	1	1	157.075	127.292	960.012
72.931	283.907	3	1	1	153.433	127.292	960.012
73.325	284.826	3	1	1	156.479	127.292	960.012
73.557	285.799	3	1	1	155.873	127.292	960.012
73.790	286.771	3	1	1	155.543	127.292	960.012
74.023	287.744	3	1	1	152.025	127.292	960.012
74.256	288.716	3	1	1	148.305	127.292	960.012
74.489	289.689	3	1	1	155.722	127.292	960.012
74.722	290.661	3	1	1	147.196	127.292	960.012
74.955	291.634	3	1	1	147.555	127.292	960.012
75.187	292.606	3	1	1	149.119	127.292	960.012
75.420	293.579	3	1	1	151.376	127.292	960.012
75.653	294.551	3	1	1	155.658	127.292	960.012
75.886	295.524	3	1	1	151.540	127.292	960.012
76.429	296.364	3	1	1	142.072	127.292	960.012
77.191	297.011	3	1	1	143.661	127.292	960.012
77.954	297.658	3	1	1	148.018	127.292	960.012
78.716	298.305	3	1	1	144.403	127.292	960.012
79.479	298.952	3	1	1	147.034	127.292	960.012
80.241	299.599	3	1	1	152.539	127.292	960.012
81.004	300.246	3	1	1	148.311	127.292	960.012
81.766	300.893	3	1	1	140.101	127.292	960.012
82.529	301.540	3	1	1	147.880	127.292	960.012
83.291	302.187	3	1	1	153.164	127.292	960.012
84.054	302.834	3	1	1	153.181	127.292	960.012
84.933	303.311	3	1	1	155.387	127.292	960.012
85.843	303.725	3	1	1	150.861	127.292	960.012
86.753	304.140	3	1	1	149.074	127.292	960.012
87.663	304.554	3	1	1	152.174	127.292	960.012
88.573	304.969	3	1	1	143.701	127.292	960.012
89.483	305.383	3	1	1	148.476	127.292	960.012
90.393	305.798	3	1	1	148.548	127.292	960.012
91.303	306.212	3	1	1	152.916	127.292	960.012
92.213	306.627	3	1	1	152.117	127.292	960.012
93.096	307.097	3	1	1	142.398	127.292	960.012
93.948	307.620	3	1	1	141.806	127.292	960.012
94.800	308.143	3	1	1	147.901	127.292	960.012
95.653	308.666	3	1	1	145.293	127.292	960.012
96.505	309.189	3	1	1	142.998	127.292	960.012
97.357	309.712	3	1	1	146.019	127.292	960.012
98.210	310.235	3	1	1	140.702	127.292	960.012
99.062	310.758	3	1	1	146.097	127.292	960.012
99.914	311.281	3	1	1	145.808	127.292	960.012
100.726	311.865	3	1	1	149.685	127.292	960.012
101.533	312.455	3	1	1	148.281	127.292	960.012
102.340	313.046	3	1	1	148.515	127.292	960.012
103.147	313.636	3	1	1	146.838	127.292	960.012
103.954	314.227	3	1	1	155.403	127.292	960.012
104.761	314.817	3	1	1	154.009	127.292	960.012
105.568	315.408	3	1	1	151.856	127.292	960.012
106.375	315.998	3	1	1	151.199	127.292	960.012
107.176	316.598	3	1	1	150.959	127.292	960.012
107.968	317.208	3	1	1	148.337	127.292	960.012
108.759	317.819	3	1	1	153.276	127.292	960.012
109.551	318.430	3	1	1	143.913	127.292	960.012
110.343	319.041	3	1	1	147.892	127.292	960.012
111.135	319.652	3	1	1	147.682	127.292	960.012
111.927	320.262	3	1	1	150.088	127.292	960.012
112.732	320.856	3	1	1	144.927	127.292	960.012
113.678	321.179	3	1	1	144.527	127.292	960.012
114.624	321.502	3	1	1	148.206	127.292	960.012
115.571	321.825	3	1	1	154.693	127.292	960.012
116.517	322.148	3	1	1	153.621	127.292	960.012
117.463	322.471	3	1	1	153.147	127.292	960.012
118.410	322.794	3	1	1	148.073	127.292	960.012
119.356	323.118	3	1	1	147.302	127.292	960.012
120.333	323.330	3	1	1	149.976	127.292	960.012
121.315	323.523	3	1	1	149.659	127.292	960.012
122.296	323.716	3	1	1	152.320	127.292	960.012
123.277	323.909	3	1	1	142.954	127.292	960.012
124.258	324.101	3	1	1	142.199	127.292	960.012
125.240	324.294	3	1	1	145.936	127.292	960.012
126.221	324.487	3	1	1	147.281	127.292	960.012
127.202	324.680	3	1	1	140.909	127.292	960.012
128.183	324.872	3	1	1	142.079	127.292	960.012
129.124	325.210	3	1	1	155.216	127.292	960.012
129.935	325.796	3	1	1	152.734	127.292	960.012
130.746	326.381	3	1	1	148.352	127.292	960.012
131.556	326.967	3	1	1	151.402	127.292	960.012
132.367	327.552	3	1	1	148.105	127.292	960.012
133.178	328.138	3	1	1	146.551	127.292	960.012
133.989	328.723	3	1	1	147.364	127.292	960.012
134.799	329.309	3	1	1	146.256	127.292	960.012
135.106	330.260	3	1	1	150.022	127.292	960.012
135.388	331.220	3	1	1	147.950	127.292	960.012
135.696	332.171	3	1	1	144.066	127.292	960.012
136.683	332.331	3	1	1	145.775	127.292	960.012
137.670	332.492	3	1	1	137.909	127.292	960.012
138.657	332.652	3	1	1	141.635	127.292	960.012
139.644	332.812	3	1	1	152.696	127.292	960.012
140.631	332.972	3	1	1	145.461	127.292	960.012
141.618	333.132	3	1	1	142.398	127.292	960.012
142.616	333.059	3	1	1	146.433	127.292	960.012
143.606	332.923	3	1	1	148.314	127.292	960.012
144.597	332.787	3	1	1	149.192	127.292	960.012
145.588	332.651	3	1	1	141.529	127.292	960.012
146.578	332.515	3	1	1	138.990	127.292	960.012
147.569	332.379	3	1	1	143.896	127.292	960.012
148.560	332.243	3	1	1	149.512	127.292	960.012
149.551	332.107	3	1	1	152.890	127.292	960.012
150.543	331.985	3	1	1	147.899	127.292	960.012
151.540	331.913	3	1	1	150.057	127.292	960.012
152.538	331.840	3	1	1	149.097	127.292	960.012
153.535	331.768	3	1	1	142.839	127.292	960.012
154.533	331.696	3	1	1	146.196	127.292	960.012
155.530	331.623	3	1	1	151.075	127.292	960.012
156.527	331.551	3	1	1	152.060	127.292	960.012
157.525	331.479	3	1	1	150.844	127.292	960.012
158.522	331.407	3	1	1	149.031	127.292	960.012
159.519	331.334	3	1	1	149.531	127.292	960.012
160.517	331.262	3	1	1	153.560	127.292	960.012
161.514	331.190	3	1	1	153.583	127.292	960.012
162.495	330.994	3	1	1	154.445	127.292	960.012
163.463	330.742	3	1	1	157.138	127.292	960.012
164.430	330.489	3	1	1	155.225	127.292	960.012
165.398	330.237	3	1	1	150.424	127.292	960.012
166.123	329.548	3	1	1	155.084	127.292	960.012
166.716	328.743	3	1	1	153.689	127.292	960.012
167.309	327.938	3	1	1	150.057	127.292	960.012
167.902	327.133	3	1	1	156.406	127.292	960.012
168.720	326.557	3	1	1	148.475	127.292	960.012
169.571	326.033	3	1	1	153.747	127.292	960.012
170.423	325.509	3	1	1	146.720	127.292	960.012
171.275	324.985	3	1	1	150.280	127.292	960.012
172.126	324.461	3	1	1	148.863	127.292	960.012
173.122	324.555	3	1	1	146.919	127.292	960.012
174.085	324.826	3	1	1	148.272	127.292	960.012
175.047	325.097	3	1	1	150.362	127.292	960.012
176.010	325.367	3	1	1	148.192	127.292	960.012
176.973	325.638	3	1	1	156.635	127.292	960.012
177.951	325.843	3	1	1	151.920	127.292	960.012
178.951	325.878	3	1	1	160.821	127.292	960.012
179.950	325.912	3	1	1	158.236	127.292	960.012
180.950	325.947	3	1	1	152.259	127.292	960.012
181.949	325.981	3	1	1	157.473	127.292	960.012
182.945	326.068	3	1	1	155.113	127.292	960.012
183.934	326.218	3	1	1	156.607	127.292	960.012
184.922	326.369	3	1	1	151.643	127.292	960.012
185.911	326.519	3	1	1	157.400	127.292	960.012
186.900	326.670	3	1	1	154.027	127.292	960.012
187.888	326.820	3	1	1	150.376	127.292	960.012
188.877	326.970	3	1	1	151.238	127.292	960.012
189.866	327.121	3	1	1	148.007	127.292	960.012
190.838	326.886	3	1	1	143.372	127.292	960.012
191.760	326.500	3	1	1	153.082	127.292	960.012
192.682	326.114	3	1	1	158.769	127.292	960.012
193.605	325.727	3	1	1	157.193	127.292	960.012
194.527	325.341	3	1	1	153.943	127.292	960.012
195.450	324.955	3	1	1	155.491	127.292	960.012
196.372	324.569	3	1	1	156.023	127.292	960.012
197.295	324.183	3	1	1	157.033	127.292	960.012
198.286	324.049	3	1	1	157.610	127.292	960.012
199.278	323.926	3	1	1	150.042	127.292	960.012
200.270	323.803	3	1	1	142.393	127.292	960.012
201.263	323.680	3	1	1	147.039	127.292	960.012
202.255	323.557	3	1	1	148.298	127.292	960.012
203.248	323.434	3	1	1	151.050	127.292	960.012
204.240	323.311	3	1	1	151.299	127.292	960.012
205.232	323.188	3	1	1	152.470	127.292	960.012
206.225	323.065	3	1	1	146.306	127.292	960.012
207.223	323.000	3	1	1	153.187	127.292	960.012
208.223	323.000	3	1	1	162.151	127.292	960.012
209.223	323.000	3	1	1	155.288	127.292	960.012
210.223	323.000	3	1	1	152.594	127.292	960.012
211.223	323.000	3	1	1	156.704	127.292	960.012
212.223	323.000	3	1	1	155.875	127.292	960.012
213.223	323.000	3	1	1	162.088	127.292	960.012
214.223	323.000	3	1	1	162.543	127.292	960.012
215.223	323.000	3	1	1	158.051	127.292	960.012
216.223	323.000	3	1	1	153.689	127.292	960.012
217.223	323.000	3	1	1	142.615	127.292	960.012
218.223	323.000	3	1	1	148.710	127.292	960.012
219.217	323.104	3	1	1	152.752	127.292	960.012
220.194	323.321	3	1	1	150.816	127.292	960.012
221.170	323.538	3	1	1	155.728	127.292	960.012
222.146	323.755	3	1	1	146.549	127.292	960.012
223.122	323.972	3	1	1	148.548	127.292	960.012
224.098	324.189	3	1	1	152.767	127.292	960.012
225.074	324.405	3	1	1	148.102	127.292	960.012
226.051	324.622	3	1	1	150.307	127.292	960.012
227.027	324.839	3	1	1	154.209	127.292	960.012
228.003	325.056	3	1	1	153.281	127.292	960.012
228.979	325.273	3	1	1	148.419	127.292	960.012
229.955	325.490	3	1	1	145.609	127.292	960.012
230.945	325.346	3	1	1	155.359	127.292	960.012
231.932	325.185	3	1	1	147.084	127.292	960.012
232.919	325.023	3	1	1	153.218	127.292	960.012
233.906	324.862	3	1	1	150.871	127.292	960.012
234.893	324.701	3	1	1	148.754	127.292	960.012
235.880	324.540	3	1	1	138.552	127.292	960.012
236.867	324.379	3	1	1	157.208	127.292	960.012
237.853	324.218	3	1	1	156.469	127.292	960.012
238.840	324.057	3	1	1	144.192	127.292	960.012
239.827	323.896	3	1	1	151.018	127.292	960.012
240.814	323.734	3	1	1	152.415	127.292	960.012
241.801	323.573	3	1	1	153.024	127.292	960.012
242.798	323.650	3	1	1	149.086	127.292	960.012
243.763	323.913	3	1	1	156.176	127.292	960.012
244.728	324.176	3	1	1	148.068	127.292	960.012
245.693	324.439	3	1	1	150.576	127.292	960.012
246.657	324.702	3	1	1	153.307	127.292	960.012
247.622	324.965	3	1	1	142.784	127.292	960.012
248.621	325.000	3	1	1	144.951	127.292	960.012
249.621	325.000	3	1	1	148.336	127.292	960.012
250.621	325.000	3	1	1	155.042	127.292	960.012
251.621	325.000	3	1	1	149.983	127.292	960.012
252.621	325.000	3	1	1	144.609	127.292	960.012
253.621	325.000	3	1	1	149.264	127.292	960.012
254.614	324.882	3	1	1	151.615	127.292	960.012
255.565	324.572	3	1	1	148.097	127.292	960.012
256.517	324.263	3	1	1	143.025	127.292	960.012
257.468	323.954	3	1	1	147.605	127.292	960.012
258.419	323.645	3	1	1	143.262	127.292	960.012
259.370	323.336	3	1	1	141.489	127.292	960.012
260.321	323.027	3	1	1	147.648	127.292	960.012
261.272	322.718	3	1	1	151.913	127.292	960.012
262.223	322.409	3	1	1	146.888	127.292	960.012
263.174	322.100	3	1	1	155.638	127.292	960.012
264.125	321.791	3	1	1	153.472	127.292	960.012
265.056	321.427	3	1	1	152.434	127.292	960.012
265.985	321.056	3	1	1	159.407	127.292	960.012
266.913	320.685	3	1	1	150.148	127.292	960.012
267.842	320.313	3	1	1	152.819	127.292	960.012
268.770	319.942	3	1	1	145.943	127.292	960.012
269.699	319.570	3	1	1	142.917	127.292	960.012
270.627	319.199	3	1	1	146.041	127.292	960.012
271.556	318.828	3	1	1	144.590	127.292	960.012
272.550	318.721	3	1	1	140.059	127.292	960.012
273.549	318.686	3	1	1	140.929	127.292	960.012
274.549	318.650	3	1	1	141.130	127.292	960.012
275.548	318.614	3	1	1	145.244	127.292	960.012
276.548	318.579	3	1	1	137.965	127.292	960.012
277.547	318.543	3	1	1	141.360	127.292	960.012
278.546	318.507	3	1	1	148.521	127.292	960.012
279.330	317.886	3	1	1	148.736	127.292	960.012
280.017	317.159	3	1	1	149.124	127.292	960.012
280.703	316.432	3	1	1	147.853	127.292	960.012
281.390	315.705	3	1	1	155.744	127.292	960.012
282.076	314.978	3	1	1	143.710	127.292	960.012
282.763	314.251	3	1	1	141.260	127.292	960.012
283.555	313.641	3	1	1	154.595	127.292	960.012
284.395	313.097	3	1	1	153.065	127.292	960.012
285.234	312.554	3	1	1	146.764	127.292	960.012
286.074	312.011	3	1	1	144.089	127.292	960.012
286.914	311.468	3	1	1	145.084	127.292	960.012
287.749	310.918	3	1	1	151.410	127.292	960.012
288.581	310.363	3	1	1	149.323	127.292	960.012
289.413	309.808	3	1	1	155.826	127.292	960.012
290.245	309.253	3	1	1	142.578	127.292	960.012
290.576	308.310	3	1	1	149.723	127.292	960.012
290.504	307.312	3	1	1	146.139	127.292	960.012
290.907	306.397	3	1	1	152.954	127.292	960.012
291.338	305.495	3	1	1	151.430	127.292	960.012
291.769	304.592	3	1	1	152.570	127.292	960.012
292.199	303.690	3	1	1	150.332	127.292	960.012
292.630	302.787	3	1	1	149.074	127.292	960.012
293.061	301.885	3	1	1	153.869	127.292	960.012
293.788	301.198	3	1	1	151.181	127.292	960.012
294.556	300.558	3	1	1	147.504	127.292	960.012
295.324	299.917	3	1	1	147.249	127.292	960.012
296.092	299.277	3	1	1	154.715	127.292	960.012
296.861	298.637	3	1	1	153.271	127.292	960.012
297.629	297.997	3	1	1	156.432	127.292	960.012
298.395	297.354	3	1	1	154.289	127.292	960.012
299.091	296.636	3	1	1	158.322	127.292	960.012
299.787	295.918	3	1	1	165.716	127.292	960.012
300.482	295.200	3	1	1	153.620	127.292	960.012
301.178	294.481	3	1	1	149.932	127.292	960.012
301.874	293.763	3	1	1	157.516	127.292	960.012
302.688	293.182	3	1	1	159.110	127.292	960.012
303.603	292.780	3	1	1	155.387	127.292	960.012
304.519	292.377	3	1	1	153.594	127.292	960.012
305.443	291.995	3	1	1	149.460	127.292	960.012
306.441	291.927	3	1	1	149.698	127.292	960.012
307.438	291.859	3	1	1	145.627	127.292	960.012
308.436	291.791	3	1	1	143.220	127.292	960.012
309.434	291.723	3	1	1	148.475	127.292	960.012
310.431	291.655	3	1	1	146.193	127.292	960.012
311.339	291.235	3	1	1	148.089	127.292	960.012
312.104	290.590	3	1	1	149.565	127.292	960.012
312.868	289.946	3	1	1	152.693	127.292	960.012
313.633	289.302	3	1	1	153.028	127.292	960.012
314.398	288.658	3	1	1	145.256	127.292	960.012
315.163	288.014	3	1	1	147.418	127.292	960.012
315.882	287.318	3	1	1	143.205	127.292	960.012
316.524	286.552	3	1	1	158.506	127.292	960.012
317.166	285.785	3	1	1	157.740	127.292	960.012
317.807	285.018	3	1	1	154.712	127.292	960.012
318.449	284.251	3	1	1	153.116	127.292	960.012
319.091	283.485	3	1	1	149.922	127.292	960.012
319.733	282.718	3	1	1	153.179	127.292	960.012
320.372	281.948	3	1	1	160.512	127.292	960.012
321.005	281.174	3	1	1	152.599	127.292	960.012
321.638	280.400	3	1	1	163.840	127.292	960.012
322.272	279.626	3	1	1	173.083	127.292	960.012
322.905	278.852	3	1	1	164.745	127.292	960.012
323.538	278.078	3	1	1	174.620	127.292	960.012
324.171	277.305	3	1	1	175.194	127.292	960.012
324.837	276.558	3	1	1	181.674	127.292	960.012
325.578	275.887	3	1	1	184.369	127.292	960.012
326.319	275.215	3	1	1	181.951	127.292	960.012
327.060	274.544	3	1	1	170.959	127.292	960.012
327.801	273.872	3	1	1	165.442	127.292	960.012
328.542	273.201	3	1	1	168.189	127.292	960.012
329.142	272.401	3	1	1	161.702	127.292	960.012
329.723	271.587	3	1	1	160.847	127.292	960.012
330.305	270.773	3	1	1	158.830	127.292	960.012
330.886	269.960	3	1	1	164.281	127.292	960.012
331.354	269.076	3	1	1	156.360	127.292	960.012
331.738	268.153	3	1	1	151.323	127.292	960.012
332.123	267.230	3	1	1	147.530	127.292	960.012
332.508	266.307	3	1	1	157.385	127.292	960.012
332.892	265.384	3	1	1	158.040	127.292	960.012
333.415	264.531	3	1	1	151.666	127.292	960.012
333.989	263.712	3	1	1	145.449	127.292	960.012
334.562	262.893	3	1	1	149.260	127.292	960.012
335.136	262.074	3	1	1	156.410	127.292	960.012
335.726	261.266	3	1	1	151.787	127.292	960.012
336.406	260.533	3	1	1	149.473	127.292	960.012
337.085	259.799	3	1	1	158.523	127.292	960.012
337.765	259.066	3	1	1	159.432	127.292	960.012
338.445	258.333	3	1	1	148.309	127.292	960.012
339.125	257.599	3	1	1	155.655	127.292	960.012
339.804	256.866	3	1	1	158.273	127.292	960.012
340.499	256.146	3	1	1	151.811	127.292	960.012
341.267	255.506	3	1	1	152.834	127.292	960.012
342.036	254.866	3	1	1	152.843	127.292	960.012
342.804	254.226	3	1	1	152.975	127.292	960.012
343.572	253.586	3	1	1	154.079	127.292	960.012
344.340	252.946	3	1	1	155.926	127.292	960.012
345.109	252.305	3	1	1	149.596	127.292	960.012
345.814	251.596	3	1	1	156.020	127.292	960.012
346.374	250.768	3	1	1	156.058	127.292	960.012
346.935	249.940	3	1	1	146.709	127.292	960.012
347.495	249.112	3	1	1	141.803	127.292	960.012
348.056	248.284	3	1	1	146.774	127.292	960.012
348.616	247.456	3	1	1	149.227	127.292	960.012
349.177	246.628	3	1	1	154.266	127.292	960.012
349.738	245.800	3	1	1	144.475	127.292	960.012
350.298	244.971	3	1	1	144.256	127.292	960.012
350.859	244.143	3	1	1	143.345	127.292	960.012
351.204	243.205	3	1	1	148.467	127.292	960.012
351.348	242.215	3	1	1	153.668	127.292	960.012
351.491	241.226	3	1	1	152.878	127.292	960.012
351.635	240.236	3	1	1	150.610	127.292	960.012
351.779	239.246	3	1	1	147.211	127.292	960.012
351.922	238.257	3	1	1	149.805	127.292	960.012
352.066	237.267	3	1	1	156.816	127.292	960.012
352.210	236.277	3	1	1	149.825	127.292	960.012
352.136	235.280	3	1	1	149.419	127.292	960.012
351.980	234.292	3	1	1	146.671	127.292	960.012
351.824	233.305	3	1	1	150.115	127.292	960.012
351.668	232.317	3	1	1	144.643	127.292	960.012
351.512	231.329	3	1	1	149.570	127.292	960.012
351.357	230.341	3	1	1	156.570	127.292	960.012
351.201	229.354	3	1	1	154.854	127.292	960.012
351.045	228.366	3	1	1	159.409	127.292	960.012
350.889	227.378	3	1	1	160.363	127.292	960.012
350.722	226.392	3	1	1	161.350	127.292	960.012
350.468	225.425	3	1	1	157.414	127.292	960.012
350.213	224.458	3	1	1	156.811	127.292	960.012
349.959	223.491	3	1	1	150.807	127.292	960.012
349.705	222.523	3	1	1	158.316	127.292	960.012
349.451	221.556	3	1	1	159.248	127.292	960.012
349.197	220.589	3	1	1	157.625	127.292	960.012
348.943	219.622	3	1	1	160.855	127.292	960.012
348.689	218.655	3	1	1	156.841	127.292	960.012
348.435	217.687	3	1	1	161.950	127.292	960.012
348.181	216.720	3	1	1	162.122	127.292	960.012
347.927	215.753	3	1	1	167.912	127.292	960.012
347.673	214.786	3	1	1	164.961	127.292	960.012
347.418	213.819	3	1	1	159.811	127.292	960.012
347.164	212.852	3	1	1	162.382	127.292	960.012
346.910	211.884	3	1	1	155.546	127.292	960.012
346.599	210.934	3	1	1	154.924	127.292	960.012
346.278	209.987	3	1	1	164.966	127.292	960.012
345.958	209.040	3	1	1	155.872	127.292	960.012
345.637	208.092	3	1	1	163.460	127.292	960.012
345.316	207.145	3	1	1	163.661	127.292	960.012
344.996	206.198	3	1	1	163.802	127.292	960.012
344.675	205.251	3	1	1	158.515	127.292	960.012
344.355	204.304	3	1	1	164.662	127.292	960.012
344.050	203.351	3	1	1	166.726	127.292	960.012
343.785	202.387	3	1	1	166.353	127.292	960.012
343.521	201.422	3	1	1	165.752	127.292	960.012
343.257	200.458	3	1	1	177.256	127.292	960.012
342.992	199.494	3	1	1	173.132	127.292	960.012
342.728	198.529	3	1	1	173.872	127.292	960.012
342.463	197.565	3	1	1	174.323	127.292	960.012
342.199	196.600	3	1	1	173.036	127.292	960.012
341.961	195.629	3	1	1	175.556	127.292	960.012
341.804	194.642	3	1	1	174.434	127.292	960.012
341.647	193.654	3	1	1	175.836	127.292	960.012
341.490	192.666	3	1	1	172.350	127.292	960.012
341.332	191.679	3	1	1	168.873	127.292	960.012
341.175	190.691	3	1	1	168.166	127.292	960.012
341.093	189.695	3	1	1	172.288	127.292	960.012
341.047	188.696	3	1	1	172.112	127.292	960.012
341.000	187.697	3	1	1	179.951	127.292	960.012
340.954	186.698	3	1	1	178.265	127.292	960.012
340.908	185.699	3	1	1	177.651	127.292	960.012
340.910	184.699	3	1	1	179.567	127.292	960.012
341.024	183.705	3	1	1	172.667	127.292	960.012
341.139	182.712	3	1	1	173.328	127.292	960.012
341.242	181.717	3	1	1	177.617	127.292	960.012
340.999	180.747	3	1	1	185.050	127.292	960.012
340.757	179.777	3	1	1	179.364	127.292	960.012
340.455	178.824	3	1	1	186.515	127.292	960.012
340.083	177.895	3	1	1	188.424	127.292	960.012
339.712	176.967	3	1	1	176.834	127.292	960.012
339.371	176.027	3	1	1	185.997	127.292	960.012
339.336	175.027	3	1	1	187.138	127.292	960.012
339.300	174.028	3	1	1	190.725	127.292	960.012
339.264	173.028	3	1	1	177.376	127.292	960.012
339.229	172.029	3	1	1	177.192	127.292	960.012
339.193	171.030	3	1	1	180.948	127.292	960.012
339.157	170.030	3	1	1	180.328	127.292	960.012
339.111	169.031	3	1	1	173.195	127.292	960.012
338.965	168.042	3	1	1	168.967	127.292	960.012
338.818	167.053	3	1	1	171.953	127.292	960.012
338.672	166.064	3	1	1	181.214	127.292	960.012
338.525	165.075	3	1	1	185.674	127.292	960.012
338.378	164.085	3	1	1	177.133	127.292	960.012
338.232	163.096	3	1	1	180.506	127.292	960.012
338.085	162.107	3	1	1	174.904	127.292	960.012
337.939	161.118	3	1	1	182.560	127.292	960.012
337.792	160.129	3	1	1	179.325	127.292	960.012
337.646	159.139	3	1	1	167.129	127.292	960.012
337.474	158.154	3	1	1	168.632	127.292	960.012
337.298	157.170	3	1	1	174.253	127.292	960.012
337.122	156.185	3	1	1	167.578	127.292	960.012
336.947	155.201	3	1	1	173.620	127.292	960.012
336.771	154.217	3	1	1	177.913	127.292	960.012
336.595	153.232	3	1	1	169.796	127.292	960.012
336.419	152.248	3	1	1	168.065	127.292	960.012
336.246	151.263	3	1	1	172.829	127.292	960.012
336.074	150.278	3	1	1	168.568	127.292	960.012
335.902	149.293	3	1	1	170.882	127.292	960.012
335.730	148.307	3	1	1	165.196	127.292	960.012
335.558	147.322	3	1	1	162.693	127.292	960.012
335.386	146.337	3	1	1	163.344	127.292	960.012
335.214	145.352	3	1	1	162.409	127.292	960.012
335.042	144.367	3	1	1	163.685	127.292	960.012
334.870	143.382	3	1	1	163.203	127.292	960.012
334.698	142.397	3	1	1	162.401	127.292	960.012
334.526	141.412	3	1	1	160.297	127.292	960.012
334.354	140.427	3	1	1	166.166	127.292	960.012
334.182	139.442	3	1	1	164.459	127.292	960.012
334.010	138.457	3	1	1	165.945	127.292	960.012
333.838	137.471	3	1	1	170.887	127.292	960.012
333.666	136.486	3	1	1	169.457	127.292	960.012
333.535	135.495	3	1	1	169.169	127.292	960.012
333.416	134.502	3	1	1	167.234	127.292	960.012
333.298	133.509	3	1	1	166.206	127.292	960.012
333.179	132.516	3	1	1	163.241	127.292	960.012
333.061	131.523	3	1	1	163.887	127.292	960.012
332.942	130.530	3	1	1	163.800	127.292	960.012
332.823	129.537	3	1	1	170.705	127.292	960.012
332.705	128.544	3	1	1	175.335	127.292	960.012
332.557	127.555	3	1	1	170.649	127.292	960.012
332.349	126.577	3	1	1	169.409	127.292	960.012
332.142	125.599	3	1	1	161.658	127.292	960.012
331.934	124.621	3	1	1	159.663	127.292	960.012
331.726	123.643	3	1	1	165.137	127.292	960.012
331.518	122.664	3	1	1	167.969	127.292	960.012
331.311	121.686	3	1	1	169.423	127.292	960.012
331.103	120.708	3	1	1	172.039	127.292	960.012
330.895	119.730	3	1	1	168.244	127.292	960.012
330.687	118.752	3	1	1	167.655	127.292	960.012
330.480	117.774	3	1	1	166.299	127.292	960.012
330.272	116.795	3	1	1	162.921	127.292	960.012
330.064	115.817	3	1	1	158.719	127.292	960.012
329.856	114.839	3	1	1	151.769	127.292	960.012
329.649	113.861	3	1	1	161.256	127.292	960.012
329.155	112.991	3	1	1	167.446	127.292	960.012
328.630	112.140	3	1	1	159.458	127.292	960.012
328.104	111.290	3	1	1	162.245	127.292	960.012
327.578	110.439	3	1	1	161.000	127.292	960.012
327.052	109.589	3	1	1	166.461	127.292	960.012
326.526	108.738	3	1	1	163.705	127.292	960.012
326.000	107.888	3	1	1	153.160	127.292	960.012
325.474	107.037	3	1	1	165.616	127.292	960.012
324.948	106.187	3	1	1	165.568	127.292	960.012
324.422	105.336	3	1	1	165.418	127.292	960.012
323.896	104.486	3	1	1	154.182	127.292	960.012
323.366	103.638	3	1	1	165.060	127.292	960.012
322.834	102.791	3	1	1	171.125	127.292	960.012
322.302	101.944	3	1	1	170.077	127.292	960.012
321.770	101.098	3	1	1	169.957	127.292	960.012
321.238	100.251	3	1	1	159.253	127.292	960.012
320.706	99.404	3	1	1	151.450	127.292	960.012
320.174	98.557	3	1	1	158.585	127.292	960.012
319.642	97.711	3	1	1	163.680	127.292	960.012
319.110	96.864	3	1	1	162.538	127.292	960.012
318.578	96.017	3	1	1	165.740	127.292	960.012
318.046	95.170	3	1	1	159.412	127.292	960.012
317.440	94.375	3	1	1	159.353	127.292	960.012
316.613	93.813	3	1	1	170.972	127.292	960.012
315.785	93.252	3	1	1	173.916	127.292	960.012
314.958	92.690	3	1	1	167.772	127.292	960.012
314.130	92.129	3	1	1	169.494	127.292	960.012
313.303	91.567	3	1	1	169.118	127.292	960.012
312.475	91.006	3	1	1	160.597	127.292	960.012
311.648	90.444	3	1	1	157.563	127.292	960.012
310.820	89.883	3	1	1	163.689	127.292	960.012
309.993	89.321	3	1	1	165.567	127.292	960.012
309.165	88.760	3	1	1	158.094	127.292	960.012
308.338	88.198	3	1	1	163.108	127.292	960.012
307.510	87.637	3	1	1	167.228	127.292	960.012
306.653	87.123	3	1	1	159.547	127.292	960.012
305.771	86.652	3	1	1	154.525	127.292	960.012
304.888	86.181	3	1	1	156.636	127.292	960.012
304.006	85.709	3	1	1	160.024	127.292	960.012
303.124	85.238	3	1	1	152.770	127.292	960.012
302.242	84.767	3	1	1	162.384	127.292	960.012
301.360	84.296	3	1	1	166.019	127.292	960.012
300.478	83.825	3	1	1	158.191	127.292	960.012
299.596	83.354	3	1	1	160.109	127.292	960.012
298.714	82.883	3	1	1	164.837	127.292	960.012
297.832	82.412	3	1	1	166.699	127.292	960.012
296.950	81.941	3	1	1	166.792	127.292	960.012
296.068	81.470	3	1	1	163.842	127.292	960.012
295.171	81.026	3	1	1	169.874	127.292	960.012
294.252	80.632	3	1	1	172.244	127.292	960.012
293.333	80.238	3	1	1	161.278	127.292	960.012
292.414	79.844	3	1	1	152.497	127.292	960.012
291.495	79.450	3	1	1	166.874	127.292	960.012
290.576	79.056	3	1	1	170.125	127.292	960.012
289.657	78.662	3	1	1	156.832	127.292	960.012
288.737	78.268	3	1	1	164.668	127.292	960.012
287.818	77.875	3	1	1	173.685	127.292	960.012
286.899	77.481	3	1	1	179.774	127.292	960.012
285.990	77.064	3	1	1	176.827	127.292	960.012
285.124	76.563	3	1	1	168.825	127.292	960.012
284.259	76.062	3	1	1	173.401	127.292	960.012
283.394	75.561	3	1	1	169.790	127.292	960.012
282.528	75.060	3	1	1	173.808	127.292	960.012
281.663	74.559	3	1	1	170.692	127.292	960.012
280.797	74.058	3	1	1	174.682	127.292	960.012
279.932	73.557	3	1	1	169.059	127.292	960.012
278.949	73.371	3	1	1	168.592	127.292	960.012
277.960	73.226	3	1	1	164.010	127.292	960.012
276.971	73.081	3	1	1	167.238	127.292	960.012
275.981	72.936	3	1	1	173.902	127.292	960.012
274.992	72.791	3	1	1	163.707	127.292	960.012
274.002	72.647	3	1	1	168.600	127.292	960.012
273.013	72.502	3	1	1	182.941	127.292	960.012
272.078	72.147	3	1	1	180.373	127.292	960.012
271.144	71.790	3	1	1	164.926	127.292	960.012
270.210	71.433	3	1	1	166.290	127.292	960.012
269.275	71.076	3	1	1	171.100	127.292	960.012
268.341	70.719	3	1	1	170.192	127.292	960.012
267.407	70.362	3	1	1	169.408	127.292	960.012
266.468	70.019	3	1	1	178.146	127.292	960.012
265.528	69.677	3	1	1	182.552	127.292	960.012
264.588	69.335	3	1	1	180.519	127.292	960.012
263.649	68.993	3	1	1	184.671	127.292	960.012
262.709	68.652	3	1	1	179.097	127.292	960.012
261.769	68.310	3	1	1	179.123	127.292	960.012
260.829	67.968	3	1	1	176.416	127.292	960.012
259.876	67.667	3	1	1	188.937	127.292	960.012
258.876	67.667	3	1	1	185.615	127.292	960.012
257.876	67.667	3	1	1	189.738	127.292	960.012
256.876	67.667	3	1	1	189.479	127.292	960.012
255.876	67.667	3	1	1	190.163	127.292	960.012
254.876	67.667	3	1	1	179.575	127.292	960.012
253.876	67.667	3	1	1	185.860	127.292	960.012
252.876	67.667	3	1	1	191.569	127.292	960.012
251.876	67.667	3	1	1	189.740	127.292	960.012
250.876	67.667	3	1	1	194.147	127.292	960.012
249.876	67.667	3	1	1	181.964	127.292	960.012
248.876	67.667	3	1	1	183.474	127.292	960.012
247.876	67.667	3	1	1	197.654	127.292	960.012
246.884	67.536	3	1	1	196.291	127.292	960.012
245.924	67.256	3	1	1	192.988	127.292	960.012
244.964	66.976	3	1	1	193.840	127.292	960.012
244.004	66.696	3	1	1	191.328	127.292	960.012
243.044	66.416	3	1	1	193.629	127.292	960.012
242.084	66.136	3	1	1	199.371	127.292	960.012
241.124	65.856	3	1	1	199.891	127.292	960.012
240.164	65.576	3	1	1	211.253	127.292	960.012
239.199	65.316	3	1	1	202.373	127.292	960.012
238.206	65.192	3	1	1	205.978	127.292	960.012
237.214	65.068	3	1	1	209.948	127.292	960.012
236.222	64.944	3	1	1	208.815	127.292	960.012
235.229	64.820	3	1	1	211.243	127.292	960.012
234.237	64.696	3	1	1	210.821	127.292	960.012
233.245	64.572	3	1	1	207.668	127.292	960.012
232.253	64.448	3	1	1	211.380	127.292	960.012
231.260	64.324	3	1	1	210.411	127.292	960.012
230.268	64.200	3	1	1	211.907	127.292	960.012
229.269	64.167	3	1	1	212.286	127.292	960.012
228.269	64.167	3	1	1	213.039	127.292	960.012
227.269	64.167	3	1	1	214.919	127.292	960.012
226.269	64.167	3	1	1	208.665	127.292	960.012
225.269	64.167	3	1	1	212.155	127.292	960.012
224.269	64.167	3	1	1	213.055	127.292	960.012
223.269	64.167	3	1	1	212.380	127.292	960.012
222.269	64.167	3	1	1	214.542	127.292	960.012
221.269	64.167	3	1	1	201.809	127.292	960.012
220.269	64.167	3	1	1	200.550	127.292	960.012
219.269	64.167	3	1	1	202.417	127.292	960.012
218.269	64.167	3	1	1	204.928	127.292	960.012
217.269	64.167	3	1	1	203.661	127.292	960.012
216.269	64.167	3	1	1	208.872	127.292	960.012
215.269	64.167	3	1	1	206.104	127.292	960.012
214.269	64.167	3	1	1	198.473	127.292	960.012
213.273	64.070	3	1	1	210.592	127.292	960.012
212.302	63.832	3	1	1	209.767	127.292	960.012
211.331	63.594	3	1	1	203.773	127.292	960.012
210.360	63.356	3	1	1	204.609	127.292	960.012
209.388	63.117	3	1	1	197.863	127.292	960.012
208.417	62.879	3	1	1	201.581	127.292	960.012
207.446	62.641	3	1	1	205.161	127.292	960.012
206.475	62.403	3	1	1	203.693	127.292	960.012
205.504	62.164	3	1	1	213.259	127.292	960.012
204.509	62.064	3	1	1	208.834	127.292	960.012
203.527	62.256	3	1	1	194.668	127.292	960.012
202.546	62.448	3	1	1	190.494	127.292	960.012
201.565	62.640	3	1	1	193.509	127.292	960.012
200.583	62.832	3	1	1	195.679	127.292	960.012
199.602	63.024	3	1	1	192.485	127.292	960.012
198.620	63.216	3	1	1	188.344	127.292	960.012
197.639	63.408	3	1	1	190.141	127.292	960.012
196.668	63.648	3	1	1	194.885	127.292	960.012
195.710	63.934	3	1	1	198.114	127.292	960.012
194.752	64.219	3	1	1	191.569	127.292	960.012
193.793	64.505	3	1	1	187.029	127.292	960.012
192.835	64.790	3	1	1	187.525	127.292	960.012
191.877	65.076	3	1	1	176.384	127.292	960.012
190.918	65.361	3	1	1	183.818	127.292	960.012
189.960	65.647	3	1	1	178.310	127.292	960.012
188.987	65.877	3	1	1	185.277	127.292	960.012
187.994	66.001	3	1	1	181.771	127.292	960.012
187.002	66.125	3	1	1	183.149	127.292	960.012
186.010	66.249	3	1	1	180.198	127.292	960.012
185.017	66.373	3	1	1	172.518	127.292	960.012
184.025	66.497	3	1	1	175.144	127.292	960.012
183.033	66.621	3	1	1	180.840	127.292	960.012
182.041	66.745	3	1	1	175.559	127.292	960.012
181.048	66.869	3	1	1	179.269	127.292	960.012
180.056	66.993	3	1	1	180.523	127.292	960.012
179.064	67.117	3	1	1	186.427	127.292	960.012
178.071	67.241	3	1	1	169.849	127.292	960.012
177.079	67.365	3	1	1	162.532	127.292	960.012
176.087	67.489	3	1	1	164.783	127.292	960.012
175.148	67.833	3	1	1	168.988	127.292	960.012
174.216	68.196	3	1	1	176.554	127.292	960.012
173.285	68.560	3	1	1	166.412	127.292	960.012
172.353	68.923	3	1	1	175.821	127.292	960.012
171.421	69.287	3	1	1	177.108	127.292	960.012
170.490	69.650	3	1	1	175.664	127.292	960.012
169.558	70.014	3	1	1	162.790	127.292	960.012
168.627	70.377	3	1	1	165.962	127.292	960.012
167.695	70.741	3	1	1	174.502	127.292	960.012
166.764	71.104	3	1	1	166.912	127.292	960.012
165.832	71.468	3	1	1	170.470	127.292	960.012
164.997	72.018	3	1	1	167.035	127.292	960.012
164.173	72.584	3	1	1	160.731	127.292	960.012
163.349	73.151	3	1	1	167.328	127.292	960.012
162.525	73.717	3	1	1	160.573	127.292	960.012
161.701	74.284	3	1	1	156.852	127.292	960.012
160.877	74.851	3	1	1	165.794	127.292	960.012
160.052	75.417	3	1	1	169.657	127.292	960.012
159.228	75.984	3	1	1	171.394	127.292	960.012
158.404	76.550	3	1	1	168.079	127.292	960.012
157.558	77.082	3	1	1	165.635	127.292	960.012
156.639	77.476	3	1	1	165.149	127.292	960.012
155.720	77.870	3	1	1	164.175	127.292	960.012
154.800	78.264	3	1	1	160.454	127.292	960.012
153.881	78.658	3	1	1	161.048	127.292	960.012
152.962	79.052	3	1	1	172.167	127.292	960.012
152.043	79.446	3	1	1	167.987	127.292	960.012
151.124	79.840	3	1	1	174.977	127.292	960.012
150.181	80.174	3	1	1	165.303	127.292	960.012
149.225	80.467	3	1	1	166.197	127.292	960.012
148.269	80.761	3	1	1	163.549	127.292	960.012
147.313	81.054	3	1	1	173.431	127.292	960.012
146.357	81.347	3	1	1	164.944	127.292	960.012
145.401	81.640	3	1	1	165.661	127.292	960.012
144.445	81.933	3	1	1	172.147	127.292	960.012
143.489	82.226	3	1	1	170.865	127.292	960.012
142.533	82.519	3	1	1	165.311	127.292	960.012
141.577	82.812	3	1	1	155.806	127.292	960.012
140.621	83.105	3	1	1	157.921	127.292	960.012
139.665	83.398	3	1	1	166.950	127.292	960.012
138.672	83.519	3	1	1	170.877	127.292	960.012
137.672	83.549	3	1	1	175.867	127.292	960.012
136.673	83.578	3	1	1	165.920	127.292	960.012
135.673	83.608	3	1	1	164.639	127.292	960.012
134.674	83.637	3	1	1	167.053	127.292	960.012
133.674	83.666	3	1	1	170.629	127.292	960.012
132.980	84.386	3	1	1	169.810	127.292	960.012
132.289	85.110	3	1	1	172.088	127.292	960.012
131.599	85.833	3	1	1	163.876	127.292	960.012
130.908	86.556	3	1	1	160.671	127.292	960.012
130.218	87.280	3	1	1	165.139	127.292	960.012
129.559	88.032	3	1	1	163.895	127.292	960.012
128.903	88.787	3	1	1	164.873	127.292	960.012
128.247	89.541	3	1	1	168.268	127.292	960.012
127.591	90.296	3	1	1	168.771	127.292	960.012
126.934	91.050	3	1	1	165.081	127.292	960.012
126.075	91.561	3	1	1	158.835	127.292	960.012
125.187	92.022	3	1	1	157.134	127.292	960.012
124.300	92.483	3	1	1	165.415	127.292	960.012
123.412	92.944	3	1	1	158.115	127.292	960.012
122.525	93.405	3	1	1	158.160	127.292	960.012
121.637	93.866	3	1	1	162.353	127.292	960.012
120.750	94.327	3	1	1	161.776	127.292	960.012
119.863	94.788	3	1	1	157.343	127.292	960.012
118.975	95.249	3	1	1	166.336	127.292	960.012
118.088	95.710	3	1	1	162.365	127.292	960.012
117.200	96.171	3	1	1	164.775	127.292	960.012
116.313	96.632	3	1	1	159.108	127.292	960.012
115.426	97.093	3	1	1	161.986	127.292	960.012
114.538	97.554	3	1	1	161.466	127.292	960.012
113.660	98.031	3	1	1	172.679	127.292	960.012
112.795	98.533	3	1	1	166.158	127.292	960.012
111.930	99.035	3	1	1	168.496	127.292	960.012
111.065	99.537	3	1	1	165.091	127.292	960.012
110.200	100.040	3	1	1	164.859	127.292	960.012
109.336	100.542	3	1	1	165.518	127.292	960.012
108.471	101.044	3	1	1	165.814	127.292	960.012
107.606	101.546	3	1	1	162.490	127.292	960.012
106.741	102.048	3	1	1	165.172	127.292	960.012
105.876	102.550	3	1	1	164.053	127.292	960.012
105.012	103.052	3	1	1	166.058	127.292	960.012
104.147	103.555	3	1	1	166.151	127.292	960.012
103.367	104.180	3	1	1	170.865	127.292	960.012
102.713	104.937	3	1	1	167.469	127.292	960.012
102.058	105.693	3	1	1	170.274	127.292	960.012
101.404	106.449	3	1	1	161.692	127.292	960.012
100.750	107.206	3	1	1	170.001	127.292	960.012
100.096	107.962	3	1	1	167.380	127.292	960.012
99.442	108.718	3	1	1	162.522	127.292	960.012
98.788	109.475	3	1	1	168.095	127.292	960.012
98.109	110.209	3	1	1	159.058	127.292	960.012
97.376	110.889	3	1	1	148.834	127.292	960.012
96.643	111.570	3	1	1	160.051	127.292	960.012
95.910	112.250	3	1	1	151.905	127.292	960.012
95.177	112.931	3	1	1	158.145	127.292	960.012
94.445	113.611	3	1	1	164.376	127.292	960.012
93.712	114.291	3	1	1	164.513	127.292	960.012
92.979	114.972	3	1	1	152.787	127.292	960.012
92.246	115.652	3	1	1	159.116	127.292	960.012
91.513	116.333	3	1	1	156.646	127.292	960.012
90.800	117.033	3	1	1	163.726	127.292	960.012
90.093	117.741	3	1	1	164.336	127.292	960.012
89.517	118.558	3	1	1	161.111	127.292	960.012
88.962	119.390	3	1	1	152.970	127.292	960.012
88.407	120.222	3	1	1	165.938	127.292	960.012
87.853	121.054	3	1	1	156.461	127.292	960.012
87.298	121.886	3	1	1	164.929	127.292	960.012
86.743	122.718	3	1	1	166.454	127.292	960.012
